1 2196 2045 2096
2 2196 1983 2034
3 2206 1944 1988
4 2184 1935 1995
5 2176 1947 2021
6 2155 1971 2068
7 2141 2028 2136
8 2153 2090 2186
9 2150 2176 2279
10 2164 2252 2339
11 2161 2332 2417
12 2173 2400 2476
13 2173 2455 2536
14 2187 2456 2515
15 2189 2450 2502
16 2214 2443 2474
17 2245 2401 2403
18 2241 2324 2327
19 2249 2222 2225
20 2231 2135 2155
21 2226 2061 2087
22 2204 1992 2023
23 2209 1946 1989
24 2192 1934 2000
25 2180 1952 2022
26 2164 1978 2065
27 2154 2029 2121
28 2170 2090 2171
29 2174 2192 2272
30 2176 2273 2351
31 2168 2338 2410
32 2179 2404 2477
33 2166 2455 2535
34 2177 2483 2545
35 2199 2478 2526
36 2227 2440 2458
37 2251 2391 2387
38 2238 2309 2312
39 2236 2212 2231
40 2206 2132 2175
41 2214 2063 2097
42 2205 1993 2032
43 2217 1942 1974
44 2208 1932 1978
45 2207 1950 1992
46 2186 1979 2046
47 2168 2046 2130
48 2180 2120 2198
49 2176 2200 2271
50 2193 2267 2322
51 2186 2347 2411
52 2202 2410 2453
53 2204 2460 2511
54 2212 2486 2518
55 2213 2468 2505
56 2241 2439 2443
57 2245 2384 2390
58 2231 2327 2339
59 2249 2238 2239
60 2236 2162 2173
61 2249 2099 2098
62 2228 2035 2053
63 2230 1971 1996
64 2217 1944 1979
65 2210 1946 1989
66 2201 1984 2035
67 2182 2058 2130
68 2181 2123 2200
69 2178 2230 2305
70 2197 2282 2338
71 2198 2348 2402
72 2217 2416 2457
73 2214 2472 2504
74 2230 2491 2511
75 2242 2479 2488
76 2261 2459 2444
77 2288 2410 2370
78 2283 2351 2316
79 2285 2277 2241
80 2269 2195 2177
81 2272 2109 2081
82 2256 2033 2028
83 2256 1994 1980
84 2241 1963 1972
85 2230 1963 1977
86 2214 1987 2020
87 2200 2035 2086
88 2212 2101 2145
89 2205 2201 2247
90 2225 2293 2313
91 2217 2368 2407
92 2237 2443 2457
93 2233 2488 2507
94 2256 2518 2516
95 2273 2513 2492
96 2286 2475 2436
97 2296 2422 2378
98 2305 2356 2293
99 2316 2259 2196
100 2299 2203 2150
101 2289 2128 2082
102 2286 2061 2031
103 2283 2020 1980
104 2278 2003 1974
105 2282 2027 2004
106 2260 2040 2035
107 2244 2083 2093
108 2253 2159 2159
109 2253 2271 2268
110 2270 2332 2315
111 2272 2399 2374
112 2294 2471 2428
113 2297 2532 2488
114 2312 2560 2501
115 2325 2549 2475
116 2347 2512 2420
117 2356 2467 2356
118 2354 2407 2303
119 2363 2322 2211
120 2359 2249 2141
121 2353 2190 2080
122 2348 2130 2039
123 2352 2075 1977
124 2346 2043 1950
125 2332 2055 1965
126 2300 2068 2019
127 2282 2122 2095
128 2303 2210 2163
129 2299 2319 2271
130 2320 2388 2321
131 2302 2455 2403
132 2321 2507 2437
133 2314 2554 2494
134 2321 2574 2508
135 2336 2579 2496
136 2356 2565 2454
137 2379 2499 2364
138 2380 2424 2294
139 2382 2327 2193
140 2370 2264 2141
141 2384 2186 2048
142 2372 2128 2001
143 2368 2078 1957
144 2345 2056 1960
145 2332 2071 1988
146 2312 2103 2038
147 2304 2153 2102
148 2309 2220 2164
149 2301 2313 2262
150 2315 2391 2323
151 2320 2477 2408
152 2331 2549 2472
153 2330 2585 2501
154 2344 2595 2494
155 2342 2584 2484
156 2362 2569 2451
157 2383 2520 2386
158 2376 2454 2330
159 2380 2373 2240
160 2359 2282 2168
161 2352 2205 2091
162 2338 2148 2063
163 2335 2115 2024
164 2326 2075 2002
165 2319 2071 1999
166 2300 2101 2054
167 2278 2161 2134
168 2283 2231 2201
169 2275 2307 2292
170 2288 2368 2336
171 2273 2441 2423
172 2284 2506 2474
173 2271 2561 2538
174 2283 2589 2549
175 2298 2587 2542
176 2310 2549 2492
177 2319 2494 2422
178 2310 2411 2353
179 2313 2315 2251
180 2301 2238 2186
181 2288 2163 2120
182 2262 2090 2076
183 2256 2037 2023
184 2248 2010 2009
185 2241 2012 2025
186 2214 2034 2077
187 2189 2075 2142
188 2201 2153 2209
189 2197 2248 2299
190 2219 2323 2355
191 2205 2402 2446
192 2215 2467 2504
193 2199 2506 2559
194 2210 2532 2564
195 2225 2520 2540
196 2236 2493 2501
197 2242 2455 2460
198 2236 2378 2395
199 2230 2281 2297
200 2223 2214 2241
201 2221 2146 2168
202 2214 2075 2105
203 2217 2018 2048
204 2211 1996 2035
205 2199 2011 2068
206 2165 2026 2113
207 2139 2088 2196
208 2151 2135 2242
209 2133 2203 2325
210 2153 2269 2363
211 2156 2344 2435
212 2167 2402 2490
213 2148 2461 2558
214 2165 2501 2583
215 2174 2485 2558
216 2189 2458 2508
217 2205 2423 2466
218 2197 2360 2404
219 2215 2261 2294
220 2202 2178 2223
221 2199 2093 2139
222 2186 2028 2093
223 2183 1983 2047
224 2167 1954 2033
225 2167 1965 2046
226 2143 1986 2096
227 2123 2030 2160
228 2123 2104 2236
229 2112 2190 2329
230 2132 2262 2383
231 2131 2324 2441
232 2145 2391 2496
233 2144 2452 2555
234 2159 2482 2574
235 2174 2479 2554
236 2182 2444 2508
237 2195 2404 2450
238 2183 2336 2398
239 2186 2249 2309
240 2175 2171 2253
241 2176 2089 2157
242 2182 2021 2088
243 2183 1965 2036
244 2160 1946 2038
245 2139 1945 2060
246 2128 1964 2087
247 2116 2011 2155
248 2134 2095 2216
249 2120 2185 2319
250 2138 2271 2378
251 2128 2342 2464
252 2136 2411 2526
253 2127 2463 2588
254 2143 2491 2586
255 2164 2470 2552
256 2181 2454 2517
257 2200 2426 2463
258 2194 2359 2411
259 2198 2269 2323
260 2177 2173 2240
261 2180 2089 2152
262 2174 2018 2090
263 2183 1963 2027
264 2172 1938 2015
265 2157 1956 2049
266 2138 1988 2106
267 2112 2019 2162
268 2120 2087 2221
269 2107 2174 2315
270 2125 2257 2380
271 2128 2336 2454
272 2140 2410 2515
273 2138 2471 2583
274 2143 2519 2620
275 2155 2505 2593
276 2176 2460 2527
277 2193 2408 2455
278 2186 2334 2394
279 2204 2266 2307
280 2190 2186 2244
281 2188 2095 2158
282 2180 2023 2093
283 2176 1982 2047
284 2171 1978 2060
285 2146 1963 2062
286 2140 1962 2077
287 2125 2004 2137
288 2137 2083 2205
289 2121 2187 2310
290 2140 2269 2385
291 2131 2342 2457
292 2141 2402 2504
293 2146 2459 2561
294 2159 2500 2588
295 2182 2494 2563
296 2196 2464 2519
297 2222 2432 2453
298 2194 2359 2414
299 2189 2271 2334
300 2180 2194 2263
301 2185 2123 2191
302 2172 2046 2125
303 2173 1977 2051
304 2158 1935 2029
305 2148 1942 2049
306 2123 1969 2094
307 2109 2022 2162
308 2124 2106 2231
309 2126 2195 2321
310 2138 2279 2388
311 2129 2349 2468
312 2142 2422 2524
313 2141 2474 2588
314 2155 2493 2583
315 2157 2485 2570
316 2174 2469 2543
317 2190 2437 2493
318 2189 2377 2436
319 2213 2298 2334
320 2206 2227 2272
321 2210 2136 2172
322 2199 2067 2117
323 2191 2013 2072
324 2174 1977 2048
325 2155 1975 2066
326 2149 1994 2095
327 2138 2040 2154
328 2129 2103 2229
329 2111 2186 2330
330 2124 2271 2391
331 2127 2336 2455
332 2143 2398 2502
333 2140 2449 2551
334 2144 2485 2583
335 2170 2500 2577
336 2187 2477 2544
337 2194 2435 2488
338 2187 2366 2426
339 2186 2269 2329
340 2170 2180 2266
341 2177 2123 2204
342 2173 2069 2145
343 2175 2006 2080
344 2167 1969 2053
345 2150 1970 2070
346 2133 1989 2097
347 2120 2016 2148
348 2126 2089 2217
349 2114 2181 2320
350 2135 2280 2395
351 2137 2371 2485
352 2150 2439 2540
353 2146 2482 2580
354 2149 2504 2604
355 2159 2492 2585
356 2173 2467 2532
357 2204 2431 2472
358 2199 2360 2410
359 2216 2279 2310
360 2194 2204 2258
361 2186 2131 2200
362 2170 2069 2151
363 2169 2001 2085
364 2154 1968 2069
365 2141 1970 2081
366 2138 1988 2103
367 2119 2020 2155
368 2130 2082 2204
369 2118 2174 2312
370 2134 2250 2363
371 2128 2320 2446
372 2123 2403 2527
373 2130 2467 2588
374 2144 2498 2599
375 2149 2485 2583
376 2162 2465 2547
377 2186 2433 2493
378 2189 2366 2424
379 2198 2291 2338
380 2186 2212 2274
381 2188 2126 2189
382 2185 2055 2119
383 2182 1991 2061
384 2164 1958 2044
385 2149 1959 2059
386 2138 1982 2098
387 2119 2026 2152
388 2128 2093 2211
389 2122 2177 2311
390 2143 2276 2380
391 2127 2357 2476
392 2127 2431 2550
393 2128 2491 2607
394 2140 2502 2606
395 2169 2501 2579
396 2191 2465 2523
397 2217 2424 2454
398 2196 2363 2414
399 2185 2270 2330
400 2164 2184 2266
401 2173 2100 2178
402 2167 2033 2113
403 2168 1990 2071
404 2162 1954 2039
405 2143 1943 2055
406 2148 1972 2075
407 2128 2004 2133
408 2116 2071 2213
409 2104 2159 2311
410 2121 2251 2379
411 2124 2332 2452
412 2131 2387 2510
413 2123 2440 2563
414 2134 2477 2581
415 2164 2478 2562
416 2172 2459 2535
417 2200 2451 2495
418 2205 2366 2405
419 2215 2267 2302
420 2196 2176 2233
421 2182 2099 2169
422 2155 2038 2127
423 2170 1989 2062
424 2169 1951 2030
425 2148 1955 2053
426 2140 1981 2097
427 2116 2018 2158
428 2121 2090 2223
429 2103 2176 2319
430 2123 2252 2378
431 2127 2321 2450
432 2128 2384 2501
433 2125 2443 2568
434 2136 2489 2600
435 2150 2496 2593
436 2174 2468 2543
437 2192 2430 2482
438 2191 2355 2416
439 2201 2289 2335
440 2178 2212 2285
441 2184 2120 2191
442 2176 2053 2128
443 2168 2003 2077
444 2174 1963 2043
445 2162 1951 2042
446 2153 1970 2068
447 2130 2002 2128
448 2131 2088 2206
449 2117 2165 2303
450 2125 2244 2367
451 2128 2325 2451
452 2130 2396 2511
453 2132 2449 2561
454 2141 2474 2579
455 2153 2467 2554
456 2170 2459 2532
457 2187 2438 2499
458 2177 2353 2429
459 2179 2268 2336
460 2169 2192 2268
461 2179 2119 2190
462 2169 2048 2128
463 2157 1978 2069
464 2149 1934 2032
465 2137 1932 2049
466 2141 1967 2084
467 2121 2000 2131
468 2122 2074 2208
469 2110 2178 2318
470 2117 2259 2390
471 2121 2338 2468
472 2122 2401 2522
473 2129 2443 2564
474 2135 2486 2598
475 2162 2489 2574
476 2174 2464 2534
477 2186 2432 2490
478 2184 2364 2432
479 2196 2275 2326
480 2183 2184 2258
481 2177 2109 2180
482 2179 2047 2122
483 2183 1982 2050
484 2170 1957 2038
485 2146 1960 2062
486 2134 1969 2089
487 2112 2018 2158
488 2125 2097 2231
489 2119 2174 2307
490 2138 2243 2360
491 2140 2332 2448
492 2140 2411 2522
493 2145 2465 2569
494 2148 2492 2584
495 2168 2492 2571
496 2170 2479 2551
497 2199 2442 2491
498 2209 2364 2404
499 2221 2302 2333
500 2217 2228 2261
501 2201 2121 2175
502 2164 2043 2130
503 2163 1990 2080
504 2160 1951 2037
505 2151 1965 2067
506 2143 1986 2099
507 2131 2009 2133
508 2132 2081 2204
509 2125 2166 2294
510 2135 2268 2378
511 2136 2353 2468
512 2133 2406 2526
513 2133 2467 2577
514 2140 2500 2611
515 2157 2491 2587
516 2166 2479 2561
517 2191 2449 2507
518 2195 2379 2432
519 2190 2291 2347
520 2179 2203 2274
521 2183 2123 2185
522 2177 2050 2124
523 2173 1988 2067
524 2171 1955 2035
525 2154 1956 2054
526 2145 1980 2087
527 2127 2018 2146
528 2123 2107 2237
529 2118 2173 2308
530 2127 2253 2378
531 2121 2332 2459
532 2129 2399 2522
533 2130 2459 2579
534 2142 2496 2601
535 2164 2497 2577
536 2175 2463 2541
537 2202 2455 2498
538 2214 2394 2429
539 2226 2315 2339
540 2214 2239 2269
541 2207 2159 2206
542 2192 2090 2154
543 2187 2022 2085
544 2181 1974 2049
545 2160 1976 2065
546 2145 2001 2109
547 2121 2030 2166
548 2121 2100 2237
549 2120 2189 2321
550 2136 2277 2387
551 2135 2346 2460
552 2146 2413 2517
553 2144 2482 2586
554 2146 2536 2634
555 2160 2537 2622
556 2166 2519 2596
557 2205 2501 2547
558 2205 2420 2462
559 2213 2335 2374
560 2198 2246 2306
561 2203 2154 2206
562 2201 2090 2139
563 2194 2029 2091
564 2195 2002 2067
565 2180 2008 2084
566 2175 2031 2114
567 2145 2050 2160
568 2149 2138 2236
569 2150 2221 2323
570 2160 2298 2385
571 2147 2383 2478
572 2151 2462 2561
573 2167 2520 2605
574 2166 2562 2643
575 2177 2561 2628
576 2195 2530 2580
577 2230 2505 2528
578 2231 2439 2462
579 2227 2347 2374
580 2214 2267 2304
581 2225 2200 2233
582 2226 2139 2158
583 2225 2069 2098
584 2219 2020 2054
585 2202 2020 2074
586 2203 2036 2091
587 2184 2059 2134
588 2179 2142 2219
589 2172 2220 2303
590 2187 2296 2354
591 2179 2364 2438
592 2176 2423 2497
593 2179 2480 2553
594 2179 2523 2590
595 2200 2542 2591
596 2200 2522 2566
597 2228 2471 2501
598 2227 2400 2428
599 2226 2331 2354
600 2216 2241 2278
601 2202 2153 2196
602 2194 2080 2142
603 2191 2028 2085
604 2195 1986 2043
605 2180 1979 2054
606 2173 1992 2080
607 2147 2018 2127
608 2136 2083 2202
609 2115 2147 2281
610 2134 2242 2361
611 2124 2329 2445
612 2135 2384 2508
613 2142 2442 2558
614 2141 2488 2586
615 2158 2492 2579
616 2167 2472 2554
617 2197 2459 2507
618 2205 2388 2435
619 2198 2301 2352
620 2180 2201 2269
621 2190 2114 2182
622 2183 2053 2128
623 2177 1988 2062
624 2171 1950 2025
625 2152 1946 2044
626 2147 1960 2065
627 2123 1983 2117
628 2116 2062 2196
629 2107 2143 2293
630 2120 2241 2374
631 2127 2327 2447
632 2135 2388 2504
633 2141 2447 2561
634 2140 2477 2587
635 2157 2466 2555
636 2164 2451 2535
637 2195 2428 2483
638 2191 2362 2420
639 2192 2295 2352
640 2183 2202 2278
641 2182 2121 2184
642 2161 2035 2126
643 2168 1985 2068
644 2167 1951 2041
645 2148 1953 2059
646 2148 1962 2066
647 2126 1988 2121
648 2130 2066 2191
649 2132 2161 2287
650 2128 2248 2368
651 2119 2320 2450
652 2115 2385 2514
653 2113 2451 2586
654 2099 2489 2632
655 2108 2481 2622
656 2117 2471 2598
657 2154 2454 2557
658 2172 2399 2481
659 2172 2326 2406
660 2171 2242 2321
661 2179 2193 2259
662 2204 2138 2183
663 2217 2068 2100
664 2241 2021 2037
665 2246 2031 2036
666 2262 2065 2063
667 2262 2126 2119
668 2283 2219 2194
669 2300 2334 2293
670 2349 2479 2385
671 2378 2608 2489
672 2404 2720 2568
673 2440 2833 2648
674 2457 2911 2704
675 2520 2956 2684
676 2572 2966 2640
677 2640 2977 2594
678 2692 2977 2534
679 2715 2984 2513
680 2750 2912 2413
681 2788 2855 2319
682 2806 2808 2254
683 2797 2731 2184
684 2789 2679 2136
685 2769 2639 2112
686 2748 2621 2125
687 2700 2611 2159
688 2686 2646 2216
689 2660 2695 2293
690 2629 2759 2387
691 2556 2810 2513
692 2510 2846 2595
693 2466 2852 2643
694 2426 2837 2665
695 2416 2776 2609
696 2382 2722 2583
697 2368 2662 2541
698 2335 2549 2467
699 2300 2441 2383
700 2259 2323 2316
701 2224 2222 2253
702 2212 2148 2179
703 2199 2063 2114
704 2198 2009 2056
705 2180 2013 2087
706 2177 2031 2110
707 2151 2056 2160
708 2154 2134 2233
709 2151 2219 2319
710 2160 2302 2390
711 2158 2364 2459
712 2166 2407 2489
713 2172 2467 2550
714 2162 2523 2599
715 2185 2531 2589
716 2182 2520 2580
717 2216 2479 2509
718 2211 2398 2442
719 2203 2317 2354
720 2208 2225 2275
721 2192 2136 2201
722 2187 2067 2127
723 2184 1991 2059
724 2195 1950 2005
725 2169 1955 2033
726 2164 1981 2069
727 2134 2004 2113
728 2134 2059 2179
729 2135 2112 2237
730 2139 2208 2320
731 2147 2304 2413
732 2154 2381 2473
733 2157 2433 2526
734 2150 2466 2573
735 2176 2493 2564
736 2184 2467 2535
737 2212 2444 2477
738 2227 2364 2390
739 2229 2306 2330
740 2221 2216 2252
741 2203 2124 2168
742 2200 2060 2106
743 2187 1998 2056
744 2188 1943 2011
745 2160 1939 2022
746 2156 1951 2044
747 2130 1972 2099
748 2125 2049 2178
749 2136 2130 2245
750 2155 2225 2322
751 2163 2308 2396
752 2162 2371 2455
753 2173 2438 2514
754 2170 2464 2546
755 2194 2474 2522
756 2191 2463 2512
757 2221 2441 2470
758 2229 2373 2402
759 2219 2306 2337
760 2210 2225 2264
761 2198 2137 2184
762 2208 2055 2104
763 2203 1994 2038
764 2219 1948 1979
765 2200 1946 1995
766 2190 1964 2034
767 2160 2006 2102
768 2159 2096 2181
769 2161 2153 2247
770 2164 2230 2314
771 2179 2299 2380
772 2167 2369 2449
773 2169 2424 2506
774 2153 2472 2569
775 2178 2476 2547
776 2187 2464 2520
777 2218 2430 2465
778 2238 2376 2394
779 2241 2310 2322
780 2230 2232 2252
781 2225 2157 2179
782 2226 2069 2094
783 2214 1993 2024
784 2233 1936 1965
785 2201 1932 1988
786 2196 1961 2019
787 2167 1988 2080
788 2159 2072 2161
789 2159 2150 2253
790 2176 2253 2329
791 2190 2320 2385
792 2184 2377 2451
793 2196 2437 2495
794 2189 2483 2537
795 2201 2490 2539
796 2195 2479 2538
797 2215 2450 2481
798 2225 2371 2394
799 2233 2302 2314
800 2241 2219 2232
801 2231 2154 2163
802 2227 2076 2100
803 2214 2007 2045
804 2214 1961 1995
805 2202 1954 2008
806 2198 1966 2021
807 2178 1994 2074
808 2160 2057 2148
809 2162 2130 2219
810 2176 2229 2304
811 2182 2307 2384
812 2185 2403 2459
813 2220 2481 2513
814 2232 2517 2532
815 2261 2520 2507
816 2261 2490 2482
817 2268 2474 2456
818 2258 2420 2406
819 2248 2354 2358
820 2249 2264 2268
821 2244 2186 2197
822 2248 2115 2115
823 2245 2046 2055
824 2260 1988 1979
825 2228 1970 1992
826 2216 1989 2029
827 2209 2002 2051
828 2193 2062 2122
829 2195 2138 2200
830 2194 2237 2291
831 2201 2326 2380
832 2208 2407 2453
833 2220 2483 2517
834 2212 2528 2570
835 2228 2539 2562
836 2243 2521 2535
837 2260 2480 2469
838 2281 2429 2403
839 2284 2371 2328
840 2290 2288 2244
841 2286 2209 2166
842 2276 2128 2105
843 2262 2061 2049
844 2266 2014 2000
845 2255 2001 1999
846 2257 2019 2014
847 2231 2041 2061
848 2224 2102 2125
849 2230 2176 2206
850 2240 2295 2310
851 2256 2381 2379
852 2249 2436 2440
853 2259 2486 2481
854 2243 2530 2534
855 2264 2553 2534
856 2283 2546 2519
857 2307 2529 2473
858 2311 2460 2396
859 2320 2388 2320
860 2313 2306 2243
861 2305 2222 2165
862 2311 2144 2087
863 2305 2085 2028
864 2309 2052 1993
865 2295 2053 2014
866 2302 2086 2033
867 2288 2089 2054
868 2267 2140 2129
869 2259 2221 2219
870 2268 2321 2309
871 2284 2392 2365
872 2295 2461 2416
873 2315 2530 2475
874 2297 2578 2527
875 2311 2587 2523
876 2313 2576 2518
877 2339 2556 2469
878 2362 2501 2393
879 2363 2430 2317
880 2362 2336 2220
881 2351 2263 2151
882 2364 2195 2080
883 2351 2125 2019
884 2354 2079 1975
885 2334 2061 1978
886 2332 2083 2006
887 2307 2117 2065
888 2288 2175 2142
889 2306 2237 2189
890 2305 2329 2277
891 2315 2429 2368
892 2323 2498 2434
893 2329 2550 2474
894 2329 2591 2518
895 2347 2608 2508
896 2359 2601 2497
897 2377 2573 2447
898 2382 2522 2388
899 2366 2452 2333
900 2370 2353 2234
901 2361 2268 2153
902 2359 2206 2092
903 2345 2141 2045
904 2352 2088 1986
905 2334 2078 1999
906 2335 2089 2009
907 2323 2121 2059
908 2309 2185 2127
909 2323 2249 2175
910 2322 2342 2277
911 2316 2428 2372
912 2299 2509 2466
913 2314 2571 2505
914 2316 2605 2544
915 2333 2615 2539
916 2336 2610 2513
917 2361 2576 2464
918 2369 2511 2392
919 2355 2445 2335
920 2349 2355 2261
921 2329 2278 2190
922 2343 2211 2118
923 2325 2156 2078
924 2326 2086 2009
925 2313 2062 2000
926 2302 2076 2029
927 2280 2105 2081
928 2270 2178 2156
929 2273 2253 2238
930 2267 2349 2338
931 2266 2418 2407
932 2259 2477 2471
933 2267 2530 2522
934 2262 2578 2568
935 2279 2595 2564
936 2284 2578 2546
937 2300 2549 2498
938 2298 2485 2436
939 2288 2429 2387
940 2297 2326 2281
941 2284 2242 2203
942 2272 2168 2151
943 2251 2093 2087
944 2261 2036 2022
945 2236 2018 2034
946 2230 2026 2048
947 2207 2061 2102
948 2199 2135 2186
949 2205 2201 2255
950 2204 2287 2336
951 2192 2348 2412
952 2186 2427 2488
953 2209 2492 2536
954 2187 2527 2591
955 2193 2537 2588
956 2198 2522 2569
957 2226 2494 2517
958 2244 2438 2443
959 2238 2372 2385
960 2241 2285 2282
961 2232 2195 2212
962 2240 2114 2126
963 2227 2052 2074
964 2224 2008 2033
965 2202 2001 2050
966 2187 2002 2071
967 2156 2015 2108
968 2146 2083 2193
969 2141 2160 2270
970 2139 2254 2365
971 2148 2332 2433
972 2141 2394 2499
973 2152 2452 2541
974 2153 2501 2595
975 2166 2516 2591
976 2174 2496 2568
977 2195 2467 2514
978 2216 2401 2438
979 2206 2337 2377
980 2204 2259 2308
981 2193 2180 2238
982 2197 2115 2165
983 2181 2047 2114
984 2182 1976 2049
985 2167 1952 2040
986 2157 1965 2057
987 2141 1992 2106
988 2124 2050 2181
989 2121 2106 2243
990 2108 2196 2339
991 2121 2278 2408
992 2126 2350 2471
993 2124 2410 2532
994 2129 2465 2587
995 2141 2485 2582
996 2148 2460 2550
997 2175 2436 2506
998 2206 2387 2425
999 2193 2324 2373
1000 2195 2226 2284
1001 2187 2164 2225
1002 2197 2104 2158
1003 2182 2044 2099
1004 2185 1988 2051
1005 2168 1959 2035
1006 2167 1960 2051
1007 2141 1989 2102
1008 2137 2054 2174
1009 2131 2120 2240
1010 2125 2199 2316
1011 2146 2282 2389
1012 2132 2363 2479
1013 2140 2424 2539
1014 2132 2473 2590
1015 2142 2493 2590
1016 2154 2486 2581
1017 2171 2451 2521
1018 2195 2402 2449
1019 2194 2332 2384
1020 2196 2236 2290
1021 2171 2155 2229
1022 2186 2090 2158
1023 2161 2017 2105
1024 2174 1966 2041
1025 2164 1934 2027
1026 2155 1948 2043
1027 2126 1983 2119
1028 2109 2058 2204
1029 2121 2136 2270
1030 2129 2217 2337
1031 2137 2283 2397
1032 2133 2359 2474
1033 2153 2433 2529
1034 2131 2482 2601
1035 2151 2499 2594
1036 2161 2477 2563
1037 2189 2453 2512
1038 2194 2400 2451
1039 2186 2339 2395
1040 2195 2252 2306
1041 2184 2181 2253
1042 2182 2106 2177
1043 2163 2028 2115
1044 2170 1965 2040
1045 2163 1935 2022
1046 2162 1959 2047
1047 2131 1978 2100
1048 2117 2027 2167
1049 2130 2090 2216
1050 2134 2183 2310
1051 2131 2266 2387
1052 2136 2342 2452
1053 2158 2412 2505
1054 2153 2486 2587
1055 2152 2509 2600
1056 2168 2488 2566
1057 2187 2454 2513
1058 2211 2406 2451
1059 2209 2346 2386
1060 2212 2247 2288
1061 2186 2167 2230
1062 2198 2093 2144
1063 2179 2026 2089
1064 2192 1973 2031
1065 2174 1946 2019
1066 2166 1961 2046
1067 2144 1989 2102
1068 2135 2045 2164
1069 2154 2119 2215
1070 2157 2225 2323
1071 2163 2292 2388
1072 2151 2362 2462
1073 2163 2446 2532
1074 2158 2518 2608
1075 2172 2528 2600
1076 2179 2483 2553
1077 2205 2443 2490
1078 2212 2378 2411
1079 2219 2328 2359
1080 2227 2248 2273
1081 2200 2180 2232
1082 2194 2121 2171
1083 2175 2056 2122
1084 2196 2006 2053
1085 2191 1983 2045
1086 2188 1983 2052
1087 2145 1996 2102
1088 2112 2047 2187
1089 2125 2094 2226
1090 2125 2177 2307
1091 2135 2251 2364
1092 2140 2338 2452
1093 2149 2408 2504
1094 2161 2468 2557
1095 2173 2495 2568
1096 2176 2495 2567
1097 2195 2475 2531
1098 2214 2424 2452
1099 2211 2359 2395
1100 2217 2276 2306
1101 2203 2180 2223
1102 2203 2090 2139
1103 2183 2022 2085
1104 2187 1978 2038
1105 2178 1949 2022
1106 2183 1966 2042
1107 2153 1991 2097
1108 2140 2037 2154
1109 2148 2115 2225
1110 2141 2220 2334
1111 2146 2302 2408
1112 2143 2369 2473
1113 2151 2424 2521
1114 2147 2479 2580
1115 2171 2507 2586
1116 2188 2488 2546
1117 2212 2471 2513
1118 2232 2443 2459
1119 2223 2368 2392
1120 2222 2262 2288
1121 2206 2184 2222
1122 2211 2102 2143
1123 2197 2030 2085
1124 2205 1990 2038
1125 2193 1968 2020
1126 2170 1959 2040
1127 2155 1978 2074
1128 2145 2023 2129
1129 2146 2088 2198
1130 2141 2179 2292
1131 2163 2274 2360
1132 2153 2362 2461
1133 2168 2442 2527
1134 2164 2488 2578
1135 2170 2502 2574
1136 2185 2518 2581
1137 2196 2487 2535
1138 2218 2420 2449
1139 2217 2354 2377
1140 2230 2266 2280
1141 2203 2179 2222
1142 2200 2083 2127
1143 2187 2018 2078
1144 2197 1964 2019
1145 2183 1938 2005
1146 2174 1953 2030
1147 2163 2001 2091
1148 2141 2039 2156
1149 2142 2091 2206
1150 2143 2199 2308
1151 2167 2279 2367
1152 2164 2351 2443
1153 2172 2410 2492
1154 2165 2458 2550
1155 2177 2492 2565
1156 2179 2500 2562
1157 2194 2474 2520
1158 2224 2432 2461
1159 2218 2355 2390
1160 2234 2254 2272
1161 2209 2164 2203
1162 2211 2082 2120
1163 2204 2024 2072
1164 2203 1983 2032
1165 2192 1966 2030
1166 2181 1967 2038
1167 2167 1996 2077
1168 2145 2030 2141
1169 2152 2092 2199
1170 2150 2181 2280
1171 2167 2261 2343
1172 2163 2342 2426
1173 2160 2414 2507
1174 2141 2464 2568
1175 2156 2478 2566
1176 2179 2480 2549
1177 2211 2468 2502
1178 2224 2415 2431
1179 2212 2336 2371
1180 2214 2243 2283
1181 2201 2168 2215
1182 2210 2092 2137
1183 2189 2030 2095
1184 2189 1987 2041
1185 2173 1956 2032
1186 2168 1970 2056
1187 2150 2005 2108
1188 2129 2039 2171
1189 2139 2095 2215
1190 2140 2186 2303
1191 2156 2269 2364
1192 2154 2355 2452
1193 2166 2434 2516
1194 2162 2482 2569
1195 2164 2495 2571
1196 2181 2484 2551
1197 2197 2456 2505
1198 2216 2418 2450
1199 2205 2365 2401
1200 2226 2274 2303
1201 2208 2176 2219
1202 2209 2086 2124
1203 2204 2008 2059
1204 2209 1964 2008
1205 2195 1947 2005
1206 2177 1947 2029
1207 2158 1964 2067
1208 2145 2009 2131
1209 2146 2080 2189
1210 2127 2164 2290
1211 2152 2262 2359
1212 2141 2342 2445
1213 2158 2411 2505
1214 2154 2456 2552
1215 2165 2480 2558
1216 2182 2466 2538
1217 2204 2458 2502
1218 2219 2431 2456
1219 2217 2372 2398
1220 2220 2276 2307
1221 2193 2192 2250
1222 2208 2098 2141
1223 2195 2030 2087
1224 2199 1981 2038
1225 2183 1951 2022
1226 2174 1951 2031
1227 2157 1972 2069
1228 2129 2010 2142
1229 2136 2094 2217
1230 2138 2179 2297
1231 2155 2260 2355
1232 2157 2340 2433
1233 2159 2402 2494
1234 2153 2446 2547
1235 2162 2486 2572
1236 2177 2480 2555
1237 2188 2457 2509
1238 2213 2420 2454
1239 2207 2348 2388
1240 2217 2260 2289
1241 2202 2175 2228
1242 2197 2093 2150
1243 2191 2026 2086
1244 2201 1975 2025
1245 2200 1946 2000
1246 2180 1949 2016
1247 2167 1984 2068
1248 2142 2025 2144
1249 2139 2098 2217
1250 2129 2195 2316
1251 2140 2279 2391
1252 2126 2340 2469
1253 2142 2394 2503
1254 2151 2440 2543
1255 2160 2473 2557
1256 2168 2470 2552
1257 2190 2465 2527
1258 2211 2441 2481
1259 2210 2363 2405
1260 2227 2283 2309
1261 2218 2220 2252
1262 2209 2108 2155
1263 2188 2018 2082
1264 2189 1949 2014
1265 2178 1921 1997
1266 2166 1939 2026
1267 2146 1964 2068
1268 2131 2008 2130
1269 2140 2082 2201
1270 2119 2166 2303
1271 2130 2256 2371
1272 2131 2329 2447
1273 2146 2394 2507
1274 2136 2445 2556
1275 2152 2474 2564
1276 2167 2460 2545
1277 2184 2444 2512
1278 2200 2415 2466
1279 2192 2353 2406
1280 2200 2264 2308
1281 2189 2173 2235
1282 2190 2076 2140
1283 2184 2002 2072
1284 2188 1948 2017
1285 2184 1926 1995
1286 2164 1946 2030
1287 2147 1965 2076
1288 2132 2004 2126
1289 2146 2089 2199
1290 2135 2197 2317
1291 2144 2281 2388
1292 2135 2340 2458
1293 2152 2407 2513
1294 2155 2466 2555
1295 2175 2498 2582
1296 2186 2513 2582
1297 2192 2496 2553
1298 2206 2434 2478
1299 2206 2351 2397
1300 2214 2253 2287
1301 2202 2175 2226
1302 2205 2102 2146
1303 2194 2022 2084
1304 2192 1980 2040
1305 2172 1960 2045
1306 2154 1960 2058
1307 2127 1969 2086
1308 2108 1999 2142
1309 2123 2087 2210
1310 2119 2191 2331
1311 2127 2284 2414
1312 2126 2359 2483
1313 2136 2416 2528
1314 2141 2469 2580
1315 2148 2493 2602
1316 2167 2489 2575
1317 2183 2471 2542
1318 2200 2439 2486
1319 2184 2372 2437
1320 2201 2291 2344
1321 2196 2211 2270
1322 2198 2128 2179
1323 2193 2059 2118
1324 2206 2000 2053
1325 2190 1976 2042
1326 2176 1993 2060
1327 2159 2016 2108
1328 2149 2050 2167
1329 2140 2118 2235
1330 2135 2206 2325
1331 2150 2285 2387
1332 2156 2364 2461
1333 2166 2428 2509
1334 2159 2475 2569
1335 2153 2508 2600
1336 2181 2513 2584
1337 2201 2487 2536
1338 2236 2463 2476
1339 2233 2399 2412
1340 2235 2308 2323
1341 2213 2231 2277
1342 2193 2147 2210
1343 2193 2090 2157
1344 2191 2022 2081
1345 2186 1988 2056
1346 2169 1984 2068
1347 2156 2002 2099
1348 2146 2031 2146
1349 2152 2109 2214
1350 2147 2211 2318
1351 2157 2292 2385
1352 2148 2360 2465
1353 2161 2420 2510
1354 2157 2468 2560
1355 2168 2492 2565
1356 2194 2476 2533
1357 2218 2458 2494
1358 2224 2421 2446
1359 2209 2354 2397
1360 2218 2263 2293
1361 2202 2183 2232
1362 2200 2106 2156
1363 2194 2034 2087
1364 2189 1972 2034
1365 2189 1945 2013
1366 2177 1953 2030
1367 2158 1977 2070
1368 2135 1990 2114
1369 2136 2050 2169
1370 2130 2134 2261
1371 2146 2226 2336
1372 2143 2311 2420
1373 2148 2395 2489
1374 2147 2445 2551
1375 2158 2467 2552
1376 2168 2463 2545
1377 2175 2453 2520
1378 2206 2428 2468
1379 2201 2352 2398
1380 2210 2267 2304
1381 2193 2169 2226
1382 2193 2070 2133
1383 2182 2002 2073
1384 2194 1942 1999
1385 2194 1912 1971
1386 2180 1923 1993
1387 2156 1944 2043
1388 2136 1981 2102
1389 2139 2061 2179
1390 2137 2144 2261
1391 2154 2225 2321
1392 2149 2298 2401
1393 2160 2369 2454
1394 2170 2428 2511
1395 2174 2458 2532
1396 2188 2454 2517
1397 2206 2437 2479
1398 2215 2406 2436
1399 2207 2332 2372
1400 2225 2249 2278
1401 2207 2176 2224
1402 2201 2102 2151
1403 2198 2032 2092
1404 2203 1980 2026
1405 2202 1955 2008
1406 2188 1950 2010
1407 2183 1958 2034
1408 2153 1974 2076
1409 2157 2054 2149
1410 2160 2147 2242
1411 2172 2226 2310
1412 2155 2304 2399
1413 2156 2364 2465
1414 2151 2432 2535
1415 2157 2492 2578
1416 2170 2494 2571
1417 2181 2484 2542
1418 2205 2437 2488
1419 2197 2359 2409
1420 2207 2274 2314
1421 2205 2199 2252
1422 2212 2123 2165
1423 2198 2054 2115
1424 2191 2001 2061
1425 2203 1970 2021
1426 2225 2005 2032
1427 2227 2034 2065
1428 2231 2078 2110
1429 2244 2154 2164
1430 2264 2267 2254
1431 2322 2378 2315
1432 2356 2493 2384
1433 2393 2593 2458
1434 2413 2707 2550
1435 2440 2796 2601
1436 2490 2846 2613
1437 2530 2865 2585
1438 2570 2866 2544
1439 2614 2836 2469
1440 2672 2795 2374
1441 2690 2774 2328
1442 2741 2770 2283
1443 2769 2753 2237
1444 2807 2700 2145
1445 2838 2682 2092
1446 2830 2678 2094
1447 2813 2672 2109
1448 2792 2677 2137
1449 2784 2741 2208
1450 2768 2785 2277
1451 2762 2832 2320
1452 2743 2898 2406
1453 2717 2955 2497
1454 2662 2997 2588
1455 2613 2989 2630
1456 2580 2943 2609
1457 2546 2865 2571
1458 2514 2774 2512
1459 2475 2649 2426
1460 2446 2523 2324
1461 2403 2398 2243
1462 2379 2279 2144
1463 2344 2177 2079
1464 2303 2093 2041
1465 2277 2042 2016
1466 2248 2041 2049
1467 2225 2077 2109
1468 2209 2120 2172
1469 2218 2194 2222
1470 2219 2264 2300
1471 2235 2341 2359
1472 2237 2420 2436
1473 2236 2479 2494
1474 2245 2521 2534
1475 2249 2547 2549
1476 2275 2559 2539
1477 2271 2537 2515
1478 2277 2497 2469
1479 2271 2417 2394
1480 2279 2333 2304
1481 2257 2257 2246
1482 2257 2165 2156
1483 2249 2094 2091
1484 2247 2028 2024
1485 2254 1980 1977
1486 2230 1969 1989
1487 2217 1985 2020
1488 2195 2026 2088
1489 2185 2093 2161
1490 2178 2183 2255
1491 2191 2264 2329
1492 2187 2352 2431
1493 2191 2432 2490
1494 2204 2471 2521
1495 2212 2491 2531
1496 2232 2497 2514
1497 2243 2471 2475
1498 2263 2442 2427
1499 2259 2366 2361
1500 2263 2285 2276
1501 2231 2192 2212
1502 2228 2113 2142
1503 2243 2078 2083
1504 2242 2024 2029
1505 2230 1988 2008
1506 2204 1973 2020
1507 2193 1982 2043
1508 2172 2012 2095
1509 2174 2071 2152
1510 2173 2150 2232
1511 2201 2257 2305
1512 2196 2327 2387
1513 2186 2396 2462
1514 2178 2451 2525
1515 2190 2480 2534
1516 2218 2483 2512
1517 2230 2460 2480
1518 2257 2429 2426
1519 2250 2355 2352
1520 2260 2282 2275
1521 2220 2200 2230
1522 2217 2115 2144
1523 2229 2054 2079
1524 2229 2002 2024
1525 2228 1971 1996
1526 2201 1963 2015
1527 2179 1972 2044
1528 2165 2005 2100
1529 2169 2087 2172
1530 2160 2161 2248
1531 2187 2255 2322
1532 2190 2349 2408
1533 2203 2430 2473
1534 2202 2473 2517
1535 2192 2494 2547
1536 2210 2503 2544
1537 2218 2482 2506
1538 2244 2455 2458
1539 2244 2375 2377
1540 2256 2304 2301
1541 2239 2213 2221
1542 2246 2134 2137
1543 2244 2072 2077
1544 2243 2020 2028
1545 2242 1967 1978
1546 2225 1969 2001
1547 2224 1987 2017
1548 2195 2009 2064
1549 2199 2089 2142
1550 2184 2182 2248
1551 2192 2278 2340
1552 2182 2347 2417
1553 2190 2409 2464
1554 2209 2459 2512
1555 2212 2503 2539
1556 2242 2505 2515
1557 2245 2489 2486
1558 2273 2465 2445
1559 2270 2385 2366
1560 2270 2311 2290
1561 2257 2227 2223
1562 2258 2150 2150
1563 2248 2079 2085
1564 2242 2022 2025
1565 2246 1984 1991
1566 2224 1978 2013
1567 2216 2005 2047
1568 2199 2042 2105
1569 2186 2114 2178
1570 2189 2183 2243
1571 2202 2264 2312
1572 2196 2337 2394
1573 2205 2404 2454
1574 2219 2466 2508
1575 2227 2515 2536
1576 2255 2519 2520
1577 2259 2507 2497
1578 2292 2478 2434
1579 2285 2398 2376
1580 2273 2322 2296
1581 2266 2238 2220
1582 2268 2161 2140
1583 2257 2094 2083
1584 2248 2041 2039
1585 2254 2003 2004
1586 2238 2000 2007
1587 2234 2011 2033
1588 2207 2038 2081
1589 2208 2108 2156
1590 2214 2192 2234
1591 2230 2286 2313
1592 2230 2382 2399
1593 2248 2449 2453
1594 2255 2496 2495
1595 2252 2511 2514
1596 2281 2519 2483
1597 2286 2510 2473
1598 2306 2500 2437
1599 2302 2434 2384
1600 2306 2359 2295
1601 2299 2272 2223
1602 2290 2190 2151
1603 2286 2124 2088
1604 2277 2048 2016
1605 2276 2000 1969
1606 2263 1993 1983
1607 2254 2018 2016
1608 2226 2058 2081
1609 2234 2142 2161
1610 2236 2220 2235
1611 2260 2315 2306
1612 2257 2395 2388
1613 2265 2460 2447
1614 2269 2526 2509
1615 2268 2569 2551
1616 2297 2569 2521
1617 2302 2546 2489
1618 2326 2521 2443
1619 2330 2459 2381
1620 2333 2386 2302
1621 2329 2295 2208
1622 2335 2208 2123
1623 2325 2151 2074
1624 2321 2078 2011
1625 2325 2054 1977
1626 2307 2063 2007
1627 2300 2082 2030
1628 2286 2096 2065
1629 2282 2185 2155
1630 2277 2261 2244
1631 2288 2341 2297
1632 2300 2412 2372
1633 2304 2479 2435
1634 2307 2541 2486
1635 2314 2590 2530
1636 2337 2609 2527
1637 2345 2587 2490
1638 2369 2556 2439
1639 2375 2494 2366
1640 2382 2417 2282
1641 2382 2331 2196
1642 2377 2240 2110
1643 2375 2190 2052
1644 2368 2122 2002
1645 2375 2090 1964
1646 2353 2084 1986
1647 2352 2110 2010
1648 2336 2141 2064
1649 2338 2206 2117
1650 2338 2286 2203
1651 2350 2378 2275
1652 2341 2458 2372
1653 2334 2537 2451
1654 2341 2584 2494
1655 2335 2630 2541
1656 2360 2648 2536
1657 2377 2630 2506
1658 2404 2599 2449
1659 2411 2521 2360
1660 2403 2449 2287
1661 2387 2374 2231
1662 2387 2293 2147
1663 2383 2215 2076
1664 2375 2140 2010
1665 2374 2104 1977
1666 2351 2090 1994
1667 2345 2121 2027
1668 2331 2156 2078
1669 2334 2234 2147
1670 2329 2311 2235
1671 2337 2408 2322
1672 2351 2489 2392
1673 2350 2548 2451
1674 2350 2600 2498
1675 2347 2637 2539
1676 2368 2646 2525
1677 2374 2623 2501
1678 2398 2607 2457
1679 2398 2556 2405
1680 2389 2470 2324
1681 2387 2370 2234
1682 2369 2281 2155
1683 2363 2209 2090
1684 2349 2161 2054
1685 2349 2116 2011
1686 2332 2100 2022
1687 2331 2116 2031
1688 2311 2148 2089
1689 2306 2221 2164
1690 2293 2297 2252
1691 2305 2393 2345
1692 2292 2460 2423
1693 2279 2521 2491
1694 2285 2579 2548
1695 2293 2625 2580
1696 2308 2645 2588
1697 2308 2617 2559
1698 2319 2587 2519
1699 2330 2514 2435
1700 2332 2440 2363
1701 2310 2344 2280
1702 2306 2246 2191
1703 2299 2190 2137
1704 2274 2115 2083
1705 2282 2058 2024
1706 2263 2047 2038
1707 2257 2071 2067
1708 2225 2111 2136
1709 2206 2180 2223
1710 2203 2245 2291
1711 2199 2321 2368
1712 2191 2397 2457
1713 2193 2456 2521
1714 2196 2518 2567
1715 2197 2560 2607
1716 2218 2565 2596
1717 2214 2544 2578
1718 2238 2520 2533
1719 2242 2460 2469
1720 2245 2379 2382
1721 2227 2270 2295
1722 2213 2197 2230
1723 2211 2128 2162
1724 2198 2048 2096
1725 2201 1996 2043
1726 2186 1999 2068
1727 2175 2023 2099
1728 2145 2056 2156
1729 2141 2120 2230
1730 2136 2186 2303
1731 2150 2278 2379
1732 2156 2358 2447
1733 2157 2421 2509
1734 2162 2487 2569
1735 2159 2539 2627
1736 2177 2546 2620
1737 2186 2527 2583
1738 2212 2489 2528
1739 2215 2419 2454
1740 2215 2348 2376
1741 2197 2260 2302
1742 2186 2184 2238
1743 2192 2094 2157
1744 2188 2028 2085
1745 2189 1979 2043
1746 2165 1970 2053
1747 2165 1993 2083
1748 2140 2029 2148
1749 2127 2103 2230
1750 2127 2167 2288
1751 2140 2255 2369
1752 2140 2340 2449
1753 2131 2412 2527
1754 2146 2478 2580
1755 2139 2520 2624
1756 2157 2516 2597
1757 2168 2503 2571
1758 2196 2475 2531
1759 2189 2407 2455
1760 2193 2325 2374
1761 2184 2246 2306
1762 2172 2167 2240
1763 2175 2096 2170
1764 2157 2015 2103
1765 2169 1952 2039
1766 2143 1948 2060
1767 2143 1972 2082
1768 2125 2025 2151
1769 2131 2110 2232
1770 2117 2170 2309
1771 2109 2253 2385
1772 2126 2324 2449
1773 2133 2400 2515
1774 2138 2476 2577
1775 2146 2536 2639
1776 2166 2550 2635
1777 2177 2521 2593
1778 2208 2482 2523
1779 2206 2396 2439
1780 2202 2323 2368
1781 2192 2240 2293
1782 2181 2165 2232
1783 2182 2094 2157
1784 2178 2032 2099
1785 2183 1991 2053
1786 2164 1991 2079
1787 2156 1999 2091
1788 2133 2012 2129
1789 2121 2081 2216
1790 2116 2160 2297
1791 2113 2260 2393
1792 2118 2334 2460
1793 2119 2403 2528
1794 2143 2479 2583
1795 2146 2527 2625
1796 2166 2527 2600
1797 2172 2497 2576
1798 2203 2470 2527
1799 2215 2420 2458
1800 2216 2342 2375
1801 2195 2259 2313
1802 2189 2184 2243
1803 2190 2104 2162
1804 2182 2045 2108
1805 2193 2000 2057
1806 2180 1985 2060
1807 2161 1996 2082
1808 2137 2024 2141
1809 2125 2097 2225
1810 2127 2185 2317
1811 2131 2287 2405
1812 2143 2378 2482
1813 2138 2425 2532
1814 2148 2470 2577
1815 2144 2518 2619
1816 2178 2538 2605
1817 2190 2546 2595
1818 2219 2520 2549
1819 2218 2455 2485
1820 2211 2373 2410
1821 2195 2274 2329
1822 2187 2201 2258
1823 2198 2124 2181
1824 2190 2068 2121
1825 2189 2010 2073
1826 2158 1996 2091
1827 2151 2008 2108
1828 2127 2041 2174
1829 2117 2120 2251
1830 2125 2194 2323
1831 2128 2276 2395
1832 2139 2344 2448
1833 2142 2415 2519
1834 2162 2492 2583
1835 2158 2547 2632
1836 2181 2556 2626
1837 2182 2540 2597
1838 2203 2501 2542
1839 2212 2436 2475
1840 2211 2367 2405
1841 2206 2275 2321
1842 2192 2192 2247
1843 2196 2118 2176
1844 2178 2060 2128
1845 2182 2005 2074
1846 2165 1997 2094
1847 2174 2034 2108
1848 2151 2070 2169
1849 2126 2126 2251
1850 2117 2166 2310
1851 2127 2255 2379
1852 2135 2339 2453
1853 2144 2423 2530
1854 2165 2490 2571
1855 2182 2535 2605
1856 2198 2553 2600
1857 2185 2549 2610
1858 2210 2511 2548
1859 2233 2429 2450
1860 2218 2368 2393
1861 2203 2277 2321
1862 2175 2200 2270
1863 2190 2138 2198
1864 2186 2069 2136
1865 2179 2011 2081
1866 2163 2001 2094
1867 2153 2009 2112
1868 2122 2025 2159
1869 2106 2088 2231
1870 2117 2168 2306
1871 2125 2265 2388
1872 2133 2347 2460
1873 2136 2418 2525
1874 2154 2477 2565
1875 2151 2532 2627
1876 2167 2547 2630
1877 2169 2532 2605
1878 2201 2501 2550
1879 2205 2438 2476
1880 2210 2369 2407
1881 2196 2275 2328
1882 2171 2198 2267
1883 2179 2120 2193
1884 2167 2055 2130
1885 2179 2004 2075
1886 2156 1981 2079
1887 2143 1988 2100
1888 2122 2028 2156
1889 2114 2096 2236
1890 2124 2162 2291
1891 2144 2259 2366
1892 2142 2341 2450
1893 2146 2428 2533
1894 2153 2489 2579
1895 2144 2529 2632
1896 2166 2548 2620
1897 2171 2526 2603
1898 2190 2508 2565
1899 2202 2442 2491
1900 2193 2358 2410
1901 2190 2281 2337
1902 2182 2204 2266
1903 2189 2133 2189
1904 2169 2060 2142
1905 2169 1995 2075
1906 2160 1981 2074
1907 2160 1992 2090
1908 2132 2035 2155
1909 2126 2101 2231
1910 2121 2158 2287
1911 2123 2247 2374
1912 2131 2323 2444
1913 2132 2399 2515
1914 2155 2468 2560
1915 2165 2529 2625
1916 2180 2558 2623
1917 2187 2541 2603
1918 2210 2499 2540
1919 2217 2433 2463
1920 2207 2367 2409
1921 2206 2274 2319
1922 2193 2194 2253
1923 2200 2121 2174
1924 2182 2056 2127
1925 2187 2001 2070
1926 2177 1993 2077
1927 2166 2009 2096
1928 2120 2030 2162
1929 2108 2102 2251
1930 2121 2175 2311
1931 2121 2263 2393
1932 2131 2327 2446
1933 2138 2404 2511
1934 2153 2465 2557
1935 2146 2512 2612
1936 2172 2534 2616
1937 2168 2534 2612
1938 2183 2495 2560
1939 2194 2434 2482
1940 2196 2369 2421
1941 2191 2268 2330
1942 2175 2189 2263
1943 2178 2118 2193
1944 2175 2048 2127
1945 2183 1985 2058
1946 2177 1983 2056
1947 2176 1991 2069
1948 2147 2022 2126
1949 2123 2091 2221
1950 2113 2164 2303
1951 2117 2263 2396
1952 2124 2330 2459
1953 2126 2393 2517
1954 2144 2446 2549
1955 2145 2503 2607
1956 2164 2535 2615
1957 2168 2524 2608
1958 2194 2496 2554
1959 2202 2439 2488
1960 2188 2378 2437
1961 2187 2286 2347
1962 2170 2204 2277
1963 2177 2113 2183
1964 2163 2034 2127
1965 2167 2004 2088
1966 2149 1980 2088
1967 2147 1977 2087
1968 2127 2006 2138
1969 2108 2075 2221
1970 2109 2153 2296
1971 2122 2250 2382
1972 2139 2329 2444
1973 2129 2405 2528
1974 2139 2472 2579
1975 2136 2513 2623
1976 2159 2538 2624
1977 2178 2534 2606
1978 2193 2508 2565
1979 2202 2438 2482
1980 2188 2372 2430
1981 2192 2284 2341
1982 2181 2203 2265
1983 2185 2128 2192
1984 2177 2059 2131
1985 2183 2006 2077
1986 2157 1981 2080
1987 2155 2005 2102
1988 2129 2025 2150
1989 2112 2080 2224
1990 2113 2150 2290
1991 2115 2260 2391
1992 2129 2329 2455
1993 2127 2405 2527
1994 2149 2484 2592
1995 2143 2534 2640
1996 2157 2551 2641
1997 2157 2538 2622
1998 2191 2512 2567
1999 2197 2450 2498
2000 2191 2375 2429
2001 2190 2268 2331
2002 2168 2191 2268
2003 2167 2118 2200
2004 2150 2066 2161
2005 2179 2026 2102
2006 2159 1995 2091
2007 2148 2011 2113
2008 2125 2031 2160
2009 2107 2075 2227
2010 2116 2160 2296
2011 2116 2258 2389
2012 2135 2337 2453
2013 2125 2408 2534
2014 2143 2486 2591
2015 2135 2533 2645
2016 2156 2546 2639
2017 2162 2537 2617
2018 2183 2522 2590
2019 2193 2478 2526
2020 2188 2398 2459
2021 2201 2311 2362
2022 2183 2231 2296
2023 2185 2154 2221
2024 2167 2074 2158
2025 2173 2017 2094
2026 2165 2007 2097
2027 2154 2032 2134
2028 2122 2042 2172
2029 2104 2101 2246
2030 2116 2170 2311
2031 2117 2257 2388
2032 2127 2330 2453
2033 2126 2416 2539
2034 2127 2477 2595
2035 2127 2532 2651
2036 2153 2564 2660
2037 2173 2572 2643
2038 2195 2547 2591
2039 2204 2476 2519
2040 2216 2409 2441
2041 2224 2318 2347
2042 2195 2256 2313
2043 2179 2175 2249
2044 2153 2089 2184
2045 2167 2032 2119
2046 2153 2010 2107
2047 2143 2015 2124
2048 2129 2043 2173
2049 2100 2104 2254
2050 2104 2176 2326
2051 2102 2270 2415
2052 2122 2342 2466
2053 2123 2423 2548
2054 2129 2488 2611
2055 2133 2558 2665
2056 2160 2583 2664
2057 2170 2575 2656
2058 2186 2534 2598
2059 2207 2479 2519
2060 2188 2410 2465
2061 2178 2309 2379
2062 2178 2227 2296
2063 2185 2146 2221
2064 2166 2095 2178
2065 2187 2040 2105
2066 2175 2026 2107
2067 2149 2056 2162
2068 2121 2081 2219
2069 2112 2116 2262
2070 2127 2166 2304
2071 2123 2278 2406
2072 2126 2364 2486
2073 2132 2443 2562
2074 2150 2511 2614
2075 2140 2559 2664
2076 2154 2574 2667
2077 2158 2570 2665
2078 2191 2551 2611
2079 2208 2508 2542
2080 2205 2432 2476
2081 2208 2347 2386
2082 2182 2257 2321
2083 2175 2169 2252
2084 2158 2113 2201
2085 2171 2066 2146
2086 2155 2058 2154
2087 2148 2066 2171
2088 2129 2092 2218
2089 2109 2148 2290
2090 2116 2216 2350
2091 2118 2309 2437
2092 2138 2385 2509
2093 2131 2454 2577
2094 2150 2528 2630
2095 2155 2576 2672
2096 2177 2602 2675
2097 2188 2591 2652
2098 2205 2566 2611
2099 2212 2508 2542
2100 2204 2445 2490
2101 2213 2372 2411
2102 2194 2289 2343
2103 2196 2216 2264
2104 2179 2134 2201
2105 2181 2081 2149
2106 2173 2066 2152
2107 2158 2071 2167
2108 2142 2095 2206
2109 2142 2142 2252
2110 2158 2215 2315
2111 2162 2313 2409
2112 2174 2398 2470
2113 2182 2483 2553
2114 2202 2549 2599
2115 2190 2599 2665
2116 2182 2621 2690
2117 2178 2608 2683
2118 2217 2589 2624
2119 2234 2549 2554
2120 2243 2467 2479
2121 2243 2373 2376
2122 2224 2287 2307
2123 2229 2205 2231
2124 2212 2155 2195
2125 2209 2096 2129
2126 2193 2053 2114
2127 2186 2047 2120
2128 2163 2076 2165
2129 2146 2127 2242
2130 2155 2183 2292
2131 2145 2276 2381
2132 2155 2355 2446
2133 2151 2446 2548
2134 2171 2510 2592
2135 2173 2563 2637
2136 2195 2569 2624
2137 2203 2558 2603
2138 2222 2538 2563
2139 2237 2493 2501
2140 2227 2429 2448
2141 2231 2322 2339
2142 2222 2243 2277
2143 2216 2174 2212
2144 2201 2116 2171
2145 2211 2039 2080
2146 2204 2006 2050
2147 2183 2014 2085
2148 2161 2027 2125
2149 2135 2085 2197
2150 2138 2164 2280
2151 2138 2257 2373
2152 2151 2329 2429
2153 2148 2396 2498
2154 2147 2456 2558
2155 2142 2517 2616
2156 2160 2532 2616
2157 2183 2538 2603
2158 2207 2510 2554
2159 2225 2460 2484
2160 2218 2382 2415
2161 2220 2291 2323
2162 2194 2207 2262
2163 2190 2120 2179
2164 2176 2061 2141
2165 2177 2008 2093
2166 2169 1992 2077
2167 2165 1984 2073
2168 2156 2010 2115
2169 2144 2071 2183
2170 2152 2156 2259
2171 2141 2241 2350
2172 2154 2308 2405
2173 2147 2384 2486
2174 2163 2459 2551
2175 2166 2533 2619
2176 2180 2562 2627
2177 2197 2531 2582
2178 2210 2515 2548
2179 2229 2477 2495
2180 2218 2389 2423
2181 2209 2275 2317
2182 2194 2203 2266
2183 2192 2129 2194
2184 2179 2054 2125
2185 2182 1996 2066
2186 2173 1965 2052
2187 2156 1979 2079
2188 2131 2010 2140
2189 2099 2043 2203
2190 2115 2117 2259
2191 2114 2222 2360
2192 2126 2306 2429
2193 2118 2403 2531
2194 2135 2480 2588
2195 2139 2524 2628
2196 2149 2538 2631
2197 2172 2536 2613
2198 2211 2526 2566
2199 2235 2497 2503
2200 2251 2438 2441
2201 2276 2358 2332
2202 2280 2280 2250
2203 2299 2211 2160
2204 2308 2168 2105
2205 2342 2139 2048
2206 2364 2154 2043
2207 2394 2218 2073
2208 2393 2298 2156
2209 2394 2381 2247
2210 2439 2507 2325
2211 2475 2657 2444
2212 2522 2777 2511
2213 2575 2886 2564
2214 2630 3010 2638
2215 2653 3125 2724
2216 2687 3220 2782
2217 2741 3236 2740
2218 2803 3218 2652
2219 2841 3176 2581
2220 2849 3100 2502
2221 2838 2992 2404
2222 2818 2886 2322
2223 2816 2785 2223
2224 2778 2662 2135
2225 2755 2584 2075
2226 2729 2548 2069
2227 2677 2521 2092
2228 2598 2524 2180
2229 2529 2528 2261
2230 2483 2553 2326
2231 2438 2583 2398
2232 2417 2607 2454
2233 2383 2637 2512
2234 2363 2650 2544
2235 2326 2671 2602
2236 2307 2669 2617
2237 2278 2628 2600
2238 2266 2581 2567
2239 2264 2525 2511
2240 2252 2463 2464
2241 2253 2379 2371
2242 2240 2295 2302
2243 2244 2209 2213
2244 2245 2128 2136
2245 2258 2085 2075
2246 2240 2054 2068
2247 2230 2076 2100
2248 2205 2097 2141
2249 2191 2122 2192
2250 2193 2178 2242
2251 2182 2249 2319
2252 2203 2335 2385
2253 2188 2416 2482
2254 2189 2466 2534
2255 2181 2508 2580
2256 2196 2532 2578
2257 2222 2534 2564
2258 2248 2512 2520
2259 2265 2469 2454
2260 2255 2398 2399
2261 2244 2302 2314
2262 2217 2225 2249
2263 2218 2137 2170
2264 2208 2072 2116
2265 2218 2007 2042
2266 2200 1982 2035
2267 2191 1998 2060
2268 2171 2013 2099
2269 2151 2061 2163
2270 2164 2143 2233
2271 2154 2216 2313
2272 2173 2279 2362
2273 2173 2357 2436
2274 2190 2446 2501
2275 2189 2507 2570
2276 2195 2531 2587
2277 2201 2523 2576
2278 2211 2491 2526
2279 2220 2438 2458
2280 2220 2371 2393
2281 2227 2295 2321
2282 2197 2215 2266
2283 2192 2119 2172
2284 2185 2041 2102
2285 2194 1994 2050
2286 2189 1971 2022
2287 2178 1974 2047
2288 2157 2003 2103
2289 2140 2038 2154
2290 2150 2104 2214
2291 2138 2196 2307
2292 2161 2279 2370
2293 2166 2368 2449
2294 2180 2446 2516
2295 2172 2497 2568
2296 2185 2521 2581
2297 2193 2512 2569
2298 2208 2486 2527
2299 2233 2457 2471
2300 2226 2393 2413
2301 2236 2298 2310
2302 2215 2207 2245
2303 2214 2124 2154
2304 2202 2036 2086
2305 2193 1990 2045
2306 2184 1973 2035
2307 2173 1972 2055
2308 2156 1998 2090
2309 2151 2048 2152
2310 2172 2129 2213
2311 2168 2218 2308
2312 2182 2308 2386
2313 2186 2405 2465
2314 2200 2461 2516
2315 2188 2515 2575
2316 2190 2536 2598
2317 2211 2530 2582
2318 2221 2503 2536
2319 2231 2462 2480
2320 2236 2386 2404
2321 2245 2301 2313
2322 2224 2233 2256
2323 2234 2151 2176
2324 2214 2076 2110
2325 2208 2007 2047
2326 2201 1977 2030
2327 2199 1977 2031
2328 2182 2011 2089
2329 2163 2059 2149
2330 2180 2137 2213
2331 2173 2230 2308
2332 2182 2295 2361
2333 2176 2379 2458
2334 2190 2455 2512
2335 2203 2512 2564
2336 2209 2544 2587
2337 2219 2532 2569
2338 2236 2513 2531
2339 2251 2472 2468
2340 2249 2404 2406
2341 2262 2329 2315
2342 2245 2252 2256
2343 2246 2165 2172
2344 2243 2093 2100
2345 2242 2025 2034
2346 2221 1985 2015
2347 2204 1989 2040
2348 2184 2026 2089
2349 2177 2070 2148
2350 2199 2152 2202
2351 2197 2248 2306
2352 2209 2324 2373
2353 2193 2400 2463
2354 2193 2477 2534
2355 2192 2527 2581
2356 2202 2543 2579
2357 2233 2548 2574
2358 2259 2534 2526
2359 2281 2507 2479
2360 2274 2429 2408
2361 2273 2337 2315
2362 2261 2269 2257
2363 2264 2180 2169
2364 2258 2091 2092
2365 2256 2029 2030
2366 2243 2005 2018
2367 2228 2017 2039
2368 2213 2044 2083
2369 2202 2082 2140
2370 2209 2159 2199
2371 2197 2236 2293
2372 2213 2328 2365
2373 2211 2426 2466
2374 2225 2496 2518
2375 2221 2533 2565
2376 2232 2567 2579
2377 2260 2576 2569
2378 2276 2570 2546
2379 2292 2544 2501
2380 2300 2467 2418
2381 2304 2378 2317
2382 2299 2289 2240
2383 2307 2213 2153
2384 2300 2145 2093
2385 2290 2089 2058
2386 2272 2064 2042
2387 2257 2049 2044
2388 2251 2074 2079
2389 2237 2120 2133
2390 2248 2190 2197
2391 2248 2266 2281
2392 2267 2356 2343
2393 2264 2435 2429
2394 2264 2507 2492
2395 2266 2570 2558
2396 2280 2611 2586
2397 2302 2622 2568
2398 2322 2593 2521
2399 2328 2555 2469
2400 2327 2479 2404
2401 2342 2394 2307
2402 2334 2311 2230
2403 2344 2235 2136
2404 2335 2179 2092
2405 2331 2127 2042
2406 2325 2076 2012
2407 2305 2078 2022
2408 2295 2103 2064
2409 2278 2134 2121
2410 2289 2205 2169
2411 2288 2302 2268
2412 2312 2410 2349
2413 2308 2510 2457
2414 2314 2566 2511
2415 2315 2613 2549
2416 2336 2645 2564
2417 2343 2647 2561
2418 2355 2642 2540
2419 2378 2612 2485
2420 2377 2533 2407
2421 2394 2441 2298
2422 2375 2355 2238
2423 2367 2281 2154
2424 2361 2195 2083
2425 2348 2146 2042
2426 2349 2105 2009
2427 2336 2102 2012
2428 2329 2126 2048
2429 2323 2167 2098
2430 2329 2244 2164
2431 2318 2315 2254
2432 2326 2418 2349
2433 2324 2512 2442
2434 2340 2589 2500
2435 2350 2651 2552
2436 2373 2675 2562
2437 2374 2666 2542
2438 2391 2638 2497
2439 2410 2609 2455
2440 2400 2547 2399
2441 2407 2470 2307
2442 2387 2372 2237
2443 2379 2302 2169
2444 2373 2232 2103
2445 2382 2167 2032
2446 2368 2134 2012
2447 2341 2124 2037
2448 2346 2149 2056
2449 2315 2169 2110
2450 2315 2261 2197
2451 2305 2361 2303
2452 2326 2428 2357
2453 2316 2512 2443
2454 2320 2603 2527
2455 2325 2659 2580
2456 2334 2677 2590
2457 2354 2671 2577
2458 2354 2642 2536
2459 2374 2590 2467
2460 2373 2524 2397
2461 2373 2444 2319
2462 2358 2360 2253
2463 2359 2291 2178
2464 2348 2228 2121
2465 2348 2172 2070
2466 2325 2135 2060
2467 2291 2136 2092
2468 2272 2140 2122
2469 2253 2169 2166
2470 2256 2243 2230
2471 2246 2320 2327
2472 2252 2401 2392
2473 2257 2481 2475
2474 2266 2551 2538
2475 2260 2609 2602
2476 2258 2635 2622
2477 2265 2634 2618
2478 2267 2614 2588
2479 2295 2584 2536
2480 2287 2514 2473
2481 2298 2436 2378
2482 2293 2351 2304
2483 2290 2261 2221
2484 2275 2185 2158
2485 2268 2111 2095
2486 2265 2078 2070
2487 2242 2079 2089
2488 2227 2091 2117
2489 2208 2117 2164
2490 2200 2186 2236
2491 2193 2268 2336
2492 2182 2348 2418
2493 2183 2431 2502
2494 2198 2498 2552
2495 2201 2551 2600
2496 2205 2590 2624
2497 2230 2589 2608
2498 2226 2570 2589
2499 2249 2537 2542
2500 2246 2460 2463
2501 2249 2382 2380
2502 2234 2299 2313
2503 2225 2203 2231
2504 2208 2127 2172
2505 2203 2063 2115
2506 2200 2032 2082
2507 2179 2027 2093
2508 2158 2043 2137
2509 2134 2087 2200
2510 2135 2156 2279
2511 2135 2242 2357
2512 2152 2331 2426
2513 2152 2416 2506
2514 2159 2478 2570
2515 2170 2538 2620
2516 2178 2574 2638
2517 2191 2574 2620
2518 2194 2547 2601
2519 2217 2525 2552
2520 2211 2450 2487
2521 2215 2364 2389
2522 2200 2275 2323
2523 2200 2198 2246
2524 2195 2145 2203
2525 2191 2074 2133
2526 2191 2010 2074
2527 2166 2003 2087
2528 2145 2029 2136
2529 2123 2062 2198
2530 2131 2147 2265
2531 2138 2229 2338
2532 2158 2314 2404
2533 2159 2405 2497
2534 2169 2475 2555
2535 2160 2537 2623
2536 2180 2561 2624
2537 2199 2554 2610
2538 2172 2537 2611
2539 2187 2515 2576
2540 2187 2439 2499
2541 2198 2352 2394
2542 2188 2270 2334
2543 2184 2183 2249
2544 2167 2112 2194
2545 2170 2040 2121
2546 2178 2004 2080
2547 2150 1998 2093
2548 2135 2017 2129
2549 2112 2054 2188
2550 2124 2144 2272
2551 2114 2225 2354
2552 2130 2315 2432
2553 2138 2407 2519
2554 2143 2473 2572
2555 2146 2523 2616
2556 2154 2551 2637
2557 2188 2558 2621
2558 2206 2553 2593
2559 2231 2531 2551
2560 2216 2454 2494
2561 2207 2360 2399
2562 2194 2265 2318
2563 2194 2177 2238
2564 2178 2114 2178
2565 2176 2069 2144
2566 2168 2037 2120
2567 2148 2025 2126
2568 2143 2033 2140
2569 2114 2047 2188
2570 2117 2121 2257
2571 2127 2218 2346
2572 2145 2315 2420
2573 2140 2393 2505
2574 2151 2463 2561
2575 2155 2529 2618
2576 2165 2562 2642
2577 2197 2566 2619
2578 2212 2560 2594
2579 2229 2518 2538
2580 2228 2442 2467
2581 2237 2370 2388
2582 2217 2279 2310
2583 2210 2195 2233
2584 2192 2119 2179
2585 2195 2071 2127
2586 2191 2033 2103
2587 2168 2027 2109
2588 2161 2037 2130
2589 2143 2060 2174
2590 2135 2139 2250
2591 2124 2219 2346
2592 2142 2299 2414
2593 2141 2379 2484
2594 2154 2451 2547
2595 2150 2511 2600
2596 2164 2555 2639
2597 2188 2556 2623
2598 2186 2538 2586
2599 2218 2494 2523
2600 2217 2423 2455
2601 2222 2351 2374
2602 2205 2265 2304
2603 2206 2188 2232
2604 2191 2126 2178
2605 2190 2073 2132
2606 2190 2026 2093
2607 2160 2008 2099
2608 2160 2018 2114
2609 2132 2048 2169
2610 2144 2126 2233
2611 2139 2207 2317
2612 2152 2296 2387
2613 2151 2392 2489
2614 2157 2468 2555
2615 2171 2531 2605
2616 2180 2559 2622
2617 2196 2557 2607
2618 2195 2534 2589
2619 2220 2511 2536
2620 2222 2430 2459
2621 2229 2355 2375
2622 2206 2262 2303
2623 2203 2179 2226
2624 2197 2106 2157
2625 2196 2045 2095
2626 2199 2001 2062
2627 2165 1987 2068
2628 2166 1995 2082
2629 2143 2023 2130
2630 2147 2102 2208
2631 2138 2189 2302
2632 2150 2301 2400
2633 2152 2395 2501
2634 2165 2459 2542
2635 2178 2505 2580
2636 2180 2545 2611
2637 2200 2554 2604
2638 2207 2532 2568
2639 2233 2503 2520
2640 2235 2425 2440
2641 2232 2343 2356
2642 2210 2257 2291
2643 2202 2173 2215
2644 2196 2088 2140
2645 2181 2021 2086
2646 2183 1976 2049
2647 2158 1974 2059
2648 2176 1987 2071
2649 2137 2034 2150
2650 2125 2117 2244
2651 2124 2186 2315
2652 2135 2282 2389
2653 2151 2366 2468
2654 2161 2442 2532
2655 2162 2490 2573
2656 2168 2524 2604
2657 2194 2539 2593
2658 2209 2536 2577
2659 2238 2518 2529
2660 2237 2426 2445
2661 2223 2343 2365
2662 2209 2242 2270
2663 2201 2143 2190
2664 2196 2076 2133
2665 2194 2021 2074
2666 2206 1989 2036
2667 2178 1987 2055
2668 2170 2008 2093
2669 2150 2036 2145
2670 2142 2111 2225
2671 2138 2186 2301
2672 2154 2288 2380
2673 2153 2360 2454
2674 2157 2417 2508
2675 2172 2473 2551
2676 2180 2525 2591
2677 2203 2523 2570
2678 2207 2498 2538
2679 2222 2471 2497
2680 2226 2412 2437
2681 2223 2338 2357
2682 2219 2246 2278
2683 2212 2156 2189
2684 2212 2087 2131
2685 2199 2017 2067
2686 2188 1971 2036
2687 2165 1962 2052
2688 2161 1979 2075
2689 2138 2019 2137
2690 2134 2095 2211
2691 2142 2179 2286
2692 2159 2264 2350
2693 2156 2330 2422
2694 2160 2404 2494
2695 2179 2481 2555
2696 2171 2525 2599
2697 2199 2526 2584
2698 2200 2508 2553
2699 2223 2474 2501
2700 2229 2399 2423
2701 2231 2308 2322
2702 2215 2228 2267
2703 2194 2142 2201
2704 2186 2063 2128
2705 2180 1990 2053
2706 2184 1961 2029
2707 2164 1958 2047
2708 2160 1971 2068
2709 2136 2012 2124
2710 2140 2108 2213
2711 2138 2174 2283
2712 2165 2254 2343
2713 2165 2331 2420
2714 2171 2396 2484
2715 2173 2463 2544
2716 2174 2507 2584
2717 2190 2514 2576
2718 2203 2492 2537
2719 2225 2455 2482
2720 2215 2386 2415
2721 2224 2310 2329
2722 2210 2220 2256
2723 2203 2137 2187
2724 2198 2066 2118
2725 2191 1994 2054
2726 2196 1948 2004
2727 2178 1942 2017
2728 2177 1965 2050
2729 2148 1997 2108
2730 2144 2073 2186
2731 2143 2156 2264
2732 2150 2241 2338
2733 2155 2319 2414
2734 2153 2388 2489
2735 2160 2459 2548
2736 2173 2506 2584
2737 2196 2506 2564
2738 2198 2489 2532
2739 2222 2463 2484
2740 2232 2400 2413
2741 2230 2315 2329
2742 2216 2223 2255
2743 2205 2140 2189
2744 2187 2065 2130
2745 2182 1999 2063
2746 2179 1950 2019
2747 2161 1940 2030
2748 2153 1947 2039
2749 2144 1981 2093
2750 2162 2076 2163
2751 2165 2150 2241
2752 2166 2247 2328
2753 2168 2326 2407
2754 2165 2385 2465
2755 2172 2444 2520
2756 2174 2498 2572
2757 2189 2511 2577
2758 2189 2493 2558
2759 2215 2476 2521
2760 2217 2405 2439
2761 2220 2327 2354
2762 2207 2223 2264
2763 2198 2134 2181
2764 2201 2052 2102
2765 2200 1998 2049
2766 2197 1955 2006
2767 2178 1940 2013
2768 2160 1949 2037
2769 2139 1977 2091
2770 2142 2053 2162
2771 2134 2132 2251
2772 2141 2232 2340
2773 2150 2311 2420
2774 2152 2380 2473
2775 2160 2438 2526
2776 2161 2486 2572
2777 2188 2507 2570
2778 2195 2523 2569
2779 2215 2473 2502
2780 2224 2376 2408
2781 2226 2305 2320
2782 2218 2210 2250
2783 2216 2137 2170
2784 2219 2064 2099
2785 2199 2004 2064
2786 2194 1956 2017
2787 2177 1941 2017
2788 2169 1952 2037
2789 2141 1981 2096
2790 2136 2060 2173
2791 2140 2132 2247
2792 2140 2228 2337
2793 2148 2305 2408
2794 2150 2382 2475
2795 2172 2452 2532
2796 2174 2490 2562
2797 2193 2495 2559
2798 2201 2490 2547
2799 2216 2458 2490
2800 2229 2388 2412
2801 2230 2329 2341
2802 2217 2233 2269
2803 2197 2131 2180
2804 2195 2051 2105
2805 2191 2001 2067
2806 2199 1953 2011
2807 2175 1940 2021
2808 2163 1957 2050
2809 2143 2001 2115
2810 2139 2066 2175
2811 2156 2136 2239
2812 2156 2224 2319
2813 2156 2290 2382
2814 2154 2373 2468
2815 2159 2449 2540
2816 2163 2498 2580
2817 2190 2489 2546
2818 2206 2483 2520
2819 2243 2471 2470
2820 2251 2399 2398
2821 2227 2338 2364
2822 2217 2256 2294
2823 2213 2162 2195
2824 2212 2075 2120
2825 2197 2007 2056
2826 2202 1949 1999
2827 2176 1925 2004
2828 2164 1936 2031
2829 2143 1991 2101
2830 2134 2064 2181
2831 2137 2127 2244
2832 2156 2226 2326
2833 2162 2314 2405
2834 2162 2387 2470
2835 2180 2452 2526
2836 2178 2501 2572
2837 2198 2513 2561
2838 2202 2502 2548
2839 2221 2473 2500
2840 2232 2408 2426
2841 2229 2328 2346
2842 2208 2227 2270
2843 2206 2149 2194
2844 2206 2075 2126
2845 2197 2021 2077
2846 2201 1980 2033
2847 2190 1963 2028
2848 2180 1978 2048
2849 2152 2011 2115
2850 2141 2084 2196
2851 2148 2154 2260
2852 2161 2255 2341
2853 2168 2344 2425
2854 2167 2418 2497
2855 2180 2481 2552
2856 2178 2530 2597
2857 2214 2553 2594
2858 2229 2551 2577
2859 2246 2517 2523
2860 2240 2440 2451
2861 2237 2364 2372
2862 2230 2261 2280
2863 2235 2179 2196
2864 2234 2114 2136
2865 2217 2058 2088
2866 2223 2013 2048
2867 2207 2007 2054
2868 2206 2013 2063
2869 2173 2030 2112
2870 2152 2097 2196
2871 2161 2176 2267
2872 2163 2269 2358
2873 2175 2354 2441
2874 2173 2422 2499
2875 2194 2491 2544
2876 2199 2535 2587
2877 2223 2556 2583
2878 2221 2540 2572
2879 2247 2514 2524
2880 2261 2464 2452
2881 2265 2403 2385
2882 2260 2308 2298
2883 2244 2216 2229
2884 2239 2148 2156
2885 2233 2069 2090
2886 2224 2019 2048
2887 2204 2009 2063
2888 2205 2028 2080
2889 2180 2062 2138
2890 2170 2127 2214
2891 2178 2192 2274
2892 2189 2290 2351
2893 2211 2371 2415
2894 2223 2441 2468
2895 2229 2489 2513
2896 2218 2538 2580
2897 2235 2560 2570
2898 2254 2546 2544
2899 2265 2517 2504
2900 2268 2420 2399
2901 2246 2340 2336
2902 2233 2253 2274
2903 2228 2188 2211
2904 2222 2112 2142
2905 2212 2045 2085
2906 2226 1985 2014
2907 2199 1947 2001
2908 2192 1959 2019
2909 2168 1993 2080
2910 2151 2072 2171
2911 2159 2144 2239
2912 2165 2233 2321
2913 2180 2313 2391
2914 2180 2394 2466
2915 2200 2462 2520
2916 2191 2511 2571
2917 2215 2519 2554
2918 2212 2505 2544
2919 2225 2461 2489
2920 2228 2386 2415
2921 2215 2326 2365
2922 2213 2238 2283
2923 2206 2150 2198
2924 2203 2075 2131
2925 2191 2020 2080
2926 2196 1975 2028
2927 2174 1956 2031
2928 2169 1959 2048
2929 2147 2000 2101
2930 2142 2064 2178
2931 2151 2125 2227
2932 2163 2215 2312
2933 2172 2310 2393
2934 2180 2376 2451
2935 2194 2451 2506
2936 2190 2495 2555
2937 2212 2503 2537
2938 2208 2488 2523
2939 2221 2460 2487
2940 2232 2398 2416
2941 2235 2354 2362
2942 2229 2249 2274
2943 2208 2159 2201
2944 2203 2077 2125
2945 2190 2004 2066
2946 2199 1949 2009
2947 2177 1935 2009
2948 2181 1955 2032
2949 2148 1982 2082
2950 2133 2048 2166
2951 2150 2114 2224
2952 2153 2219 2323
2953 2158 2295 2391
2954 2153 2362 2461
2955 2167 2427 2512
2956 2170 2488 2567
2957 2190 2524 2581
2958 2190 2500 2566
2959 2192 2470 2529
2960 2199 2424 2469
2961 2195 2360 2415
2962 2186 2277 2336
2963 2173 2198 2271
2964 2184 2120 2189
2965 2170 2046 2122
2966 2180 1995 2065
2967 2179 1988 2065
2968 2198 2020 2075
2969 2200 2062 2117
2970 2209 2130 2175
2971 2232 2213 2237
2972 2260 2321 2313
2973 2309 2423 2366
2974 2337 2529 2449
2975 2382 2641 2521
2976 2417 2750 2586
2977 2452 2802 2604
2978 2494 2831 2592
2979 2558 2852 2548
2980 2595 2831 2488
2981 2624 2796 2420
2982 2650 2759 2363
2983 2664 2747 2330
2984 2702 2734 2280
2985 2725 2727 2251
2986 2783 2676 2142
2987 2800 2672 2122
2988 2808 2683 2119
2989 2789 2706 2177
2990 2773 2749 2231
2991 2767 2788 2278
2992 2756 2841 2345
2993 2746 2904 2408
2994 2723 2957 2492
2995 2703 3001 2556
2996 2649 3022 2626
2997 2611 3020 2662
2998 2559 2944 2642
2999 2526 2849 2574
3000 2493 2732 2489
3001 2456 2627 2421
3002 2419 2494 2321
3003 2389 2364 2228
3004 2360 2242 2127
3005 2308 2162 2096
3006 2285 2108 2075
3007 2236 2071 2082
3008 2209 2032 2079
3009 2170 2052 2138
3010 2150 2116 2220
3011 2164 2200 2290
3012 2178 2318 2393
3013 2191 2391 2447
3014 2198 2452 2511
3015 2213 2519 2553
3016 2217 2570 2604
3017 2226 2580 2607
3018 2234 2557 2574
3019 2252 2524 2517
3020 2270 2472 2449
3021 2265 2406 2390
3022 2264 2292 2279
3023 2242 2211 2216
3024 2236 2126 2138
3025 2223 2058 2086
3026 2229 2004 2029
3027 2213 1990 2029
3028 2206 1994 2046
3029 2166 2007 2092
3030 2142 2064 2169
3031 2156 2134 2228
3032 2171 2237 2321
3033 2180 2302 2381
3034 2168 2378 2455
3035 2185 2446 2509
3036 2190 2496 2564
3037 2195 2510 2555
3038 2204 2499 2542
3039 2231 2475 2491
3040 2247 2422 2426
3041 2234 2356 2370
3042 2231 2250 2268
3043 2188 2152 2212
3044 2169 2077 2153
3045 2175 2021 2094
3046 2193 1977 2030
3047 2183 1947 2015
3048 2186 1958 2025
3049 2165 1985 2078
3050 2142 2040 2152
3051 2141 2111 2222
3052 2151 2215 2317
3053 2167 2278 2366
3054 2161 2354 2446
3055 2173 2431 2504
3056 2179 2499 2562
3057 2189 2509 2570
3058 2196 2492 2548
3059 2220 2465 2488
3060 2237 2405 2411
3061 2223 2321 2346
3062 2226 2232 2258
3063 2213 2170 2204
3064 2227 2089 2111
3065 2207 2012 2053
3066 2212 1952 1989
3067 2197 1932 1993
3068 2186 1948 2013
3069 2160 1973 2063
3070 2152 2035 2137
3071 2161 2099 2196
3072 2169 2198 2277
3073 2185 2280 2349
3074 2177 2350 2421
3075 2196 2429 2486
3076 2187 2477 2546
3077 2197 2492 2541
3078 2211 2480 2517
3079 2239 2454 2468
3080 2256 2402 2396
3081 2244 2338 2342
3082 2255 2250 2245
3083 2238 2167 2170
3084 2243 2095 2096
3085 2233 2024 2038
3086 2237 1961 1979
3087 2212 1936 1980
3088 2209 1943 1992
3089 2193 1972 2038
3090 2184 2031 2106
3091 2183 2109 2177
3092 2193 2213 2274
3093 2207 2293 2342
3094 2204 2369 2417
3095 2228 2440 2461
3096 2219 2496 2529
3097 2231 2520 2547
3098 2234 2504 2521
3099 2249 2469 2471
3100 2272 2418 2399
3101 2271 2359 2336
3102 2277 2272 2243
3103 2266 2188 2179
3104 2261 2100 2087
3105 2245 2025 2028
3106 2254 1983 1982
3107 2244 1968 1979
3108 2233 1976 1995
3109 2206 1988 2041
3110 2183 2041 2109
3111 2186 2103 2174
3112 2158 2201 2289
3113 2182 2282 2343
3114 2185 2362 2420
3115 2209 2448 2487
3116 2206 2508 2556
3117 2222 2526 2551
3118 2235 2497 2517
3119 2273 2475 2452
3120 2277 2425 2400
3121 2258 2354 2342
3122 2270 2261 2237
3123 2258 2176 2170
3124 2266 2106 2089
3125 2269 2052 2037
3126 2277 1990 1965
3127 2261 1962 1955
3128 2264 1976 1968
3129 2236 1994 2015
3130 2208 2048 2097
3131 2215 2117 2163
3132 2218 2207 2243
3133 2255 2296 2293
3134 2256 2384 2377
3135 2263 2466 2454
3136 2250 2519 2525
3137 2263 2547 2529
3138 2287 2527 2490
3139 2309 2504 2441
3140 2315 2459 2391
3141 2309 2400 2341
3142 2317 2315 2255
3143 2293 2221 2178
3144 2294 2144 2100
3145 2297 2077 2032
3146 2303 2030 1979
3147 2291 2012 1975
3148 2279 2004 1983
3149 2254 2029 2033
3150 2240 2086 2099
3151 2258 2165 2160
3152 2250 2250 2253
3153 2268 2325 2313
3154 2266 2403 2390
3155 2274 2468 2439
3156 2274 2513 2488
3157 2294 2550 2511
3158 2298 2560 2512
3159 2309 2517 2462
3160 2330 2462 2382
3161 2325 2390 2310
3162 2331 2299 2215
3163 2325 2226 2149
3164 2313 2146 2071
3165 2307 2073 2017
3166 2311 2032 1965
3167 2302 2018 1969
3168 2296 2022 1977
3169 2279 2045 2024
3170 2259 2097 2098
3171 2262 2167 2156
3172 2265 2253 2239
3173 2284 2331 2302
3174 2285 2411 2380
3175 2307 2492 2437
3176 2321 2559 2493
3177 2330 2589 2507
3178 2344 2589 2493
3179 2358 2559 2446
3180 2378 2514 2375
3181 2358 2441 2325
3182 2360 2344 2227
3183 2356 2272 2158
3184 2363 2196 2079
3185 2351 2121 2013
3186 2354 2071 1968
3187 2338 2047 1966
3188 2332 2060 1977
3189 2325 2080 2005
3190 2306 2134 2082
3191 2320 2216 2147
3192 2315 2300 2234
3193 2328 2373 2303
3194 2331 2462 2386
3195 2360 2542 2440
3196 2359 2610 2499
3197 2364 2638 2518
3198 2373 2642 2519
3199 2393 2609 2461
3200 2407 2545 2382
3201 2395 2469 2324
3202 2405 2387 2222
3203 2386 2313 2172
3204 2378 2234 2096
3205 2364 2161 2041
3206 2364 2114 1995
3207 2352 2084 1976
3208 2338 2072 1981
3209 2324 2098 2026
3210 2316 2151 2083
3211 2321 2224 2155
3212 2323 2316 2251
3213 2331 2403 2320
3214 2335 2482 2395
3215 2356 2550 2448
3216 2346 2598 2500
3217 2357 2638 2524
3218 2378 2635 2505
3219 2405 2602 2443
3220 2423 2561 2385
3221 2407 2495 2341
3222 2390 2405 2262
3223 2356 2332 2221
3224 2363 2241 2128
3225 2357 2169 2060
3226 2353 2114 2012
3227 2343 2094 2006
3228 2331 2118 2038
3229 2312 2140 2077
3230 2291 2172 2137
3231 2297 2244 2201
3232 2296 2328 2287
3233 2307 2404 2345
3234 2299 2475 2425
3235 2300 2537 2483
3236 2283 2596 2562
3237 2300 2623 2571
3238 2307 2604 2546
3239 2329 2580 2499
3240 2342 2545 2448
3241 2321 2475 2388
3242 2320 2376 2299
3243 2300 2289 2236
3244 2305 2204 2142
3245 2288 2124 2090
3246 2279 2072 2035
3247 2268 2042 2023
3248 2255 2053 2043
3249 2235 2093 2110
3250 2211 2123 2166
3251 2222 2176 2206
3252 2206 2269 2308
3253 2230 2345 2374
3254 2210 2426 2462
3255 2217 2492 2517
3256 2210 2538 2569
3257 2230 2577 2595
3258 2249 2572 2578
3259 2263 2551 2536
3260 2276 2511 2482
3261 2270 2434 2414
3262 2257 2338 2318
3263 2233 2238 2249
3264 2227 2153 2177
3265 2207 2083 2122
3266 2230 2031 2044
3267 2218 2003 2039
3268 2199 2005 2053
3269 2178 2033 2100
3270 2162 2090 2183
3271 2164 2153 2246
3272 2145 2253 2358
3273 2151 2318 2411
3274 2151 2380 2481
3275 2160 2454 2543
3276 2156 2514 2610
3277 2171 2550 2618
3278 2181 2534 2596
3279 2190 2504 2547
3280 2217 2467 2485
3281 2198 2387 2431
3282 2205 2293 2334
3283 2192 2218 2270
3284 2203 2131 2167
3285 2189 2046 2102
3286 2190 1999 2056
3287 2178 1979 2049
3288 2159 1994 2090
3289 2134 2010 2118
3290 2124 2047 2174
3291 2133 2107 2224
3292 2128 2199 2319
3293 2144 2287 2393
3294 2143 2374 2475
3295 2159 2438 2532
3296 2156 2492 2585
3297 2175 2522 2598
3298 2190 2518 2578
3299 2190 2498 2551
3300 2209 2467 2504
3301 2201 2391 2444
3302 2203 2288 2335
3303 2189 2209 2268
3304 2190 2129 2183
3305 2184 2051 2113
3306 2188 1989 2051
3307 2174 1964 2046
3308 2152 1975 2075
3309 2130 1991 2117
3310 2111 2030 2173
3311 2120 2109 2240
3312 2126 2210 2334
3313 2147 2302 2404
3314 2141 2376 2490
3315 2150 2454 2551
3316 2160 2501 2584
3317 2164 2516 2603
3318 2182 2527 2591
3319 2189 2494 2546
3320 2210 2448 2493
3321 2199 2382 2432
3322 2217 2308 2344
3323 2194 2226 2282
3324 2190 2141 2206
3325 2171 2064 2148
3326 2163 2005 2086
3327 2161 1987 2072
3328 2153 1996 2092
3329 2134 2006 2125
3330 2112 2037 2183
3331 2126 2119 2243
3332 2126 2213 2337
3333 2146 2289 2389
3334 2143 2369 2475
3335 2149 2446 2539
3336 2155 2510 2598
3337 2163 2531 2611
3338 2187 2529 2591
3339 2198 2499 2548
3340 2212 2457 2494
3341 2208 2394 2443
3342 2209 2304 2343
3343 2202 2217 2263
3344 2204 2128 2172
3345 2189 2062 2122
3346 2192 2013 2070
3347 2172 1970 2052
3348 2158 1987 2085
3349 2139 2028 2140
3350 2134 2064 2180
3351 2151 2120 2219
3352 2134 2196 2314
3353 2167 2280 2360
3354 2149 2363 2468
3355 2138 2437 2543
3356 2142 2500 2594
3357 2170 2532 2610
3358 2183 2537 2608
3359 2194 2505 2554
3360 2205 2451 2492
3361 2201 2387 2436
3362 2209 2316 2351
3363 2189 2234 2288
3364 2191 2145 2205
3365 2178 2078 2147
3366 2172 2022 2092
3367 2164 1982 2063
3368 2152 1976 2073
3369 2133 2002 2120
3370 2128 2059 2185
3371 2134 2125 2244
3372 2129 2212 2337
3373 2139 2298 2404
3374 2146 2387 2487
3375 2157 2463 2555
3376 2162 2521 2605
3377 2168 2544 2621
3378 2186 2544 2608
3379 2204 2533 2575
3380 2225 2482 2503
3381 2208 2388 2427
3382 2206 2299 2337
3383 2186 2235 2299
3384 2190 2161 2223
3385 2185 2106 2172
3386 2188 2036 2097
3387 2177 1994 2065
3388 2160 1984 2075
3389 2145 2022 2130
3390 2116 2056 2192
3391 2127 2139 2264
3392 2125 2232 2350
3393 2141 2307 2416
3394 2136 2373 2483
3395 2147 2440 2537
3396 2151 2501 2592
3397 2165 2535 2612
3398 2189 2529 2596
3399 2189 2502 2556
3400 2216 2473 2504
3401 2209 2402 2439
3402 2217 2323 2357
3403 2190 2244 2302
3404 2196 2160 2215
3405 2189 2093 2150
3406 2191 2037 2095
3407 2172 1996 2079
3408 2148 1986 2088
3409 2138 2013 2130
3410 2122 2070 2201
3411 2134 2157 2282
3412 2124 2245 2367
3413 2143 2322 2424
3414 2153 2394 2489
3415 2158 2461 2550
3416 2156 2527 2614
3417 2170 2563 2638
3418 2184 2553 2619
3419 2194 2532 2585
3420 2214 2500 2536
3421 2196 2424 2473
3422 2188 2326 2385
3423 2180 2250 2316
3424 2183 2170 2229
3425 2176 2109 2176
3426 2178 2059 2127
3427 2181 2018 2087
3428 2165 2010 2092
3429 2152 2031 2126
3430 2130 2078 2194
3431 2138 2152 2269
3432 2127 2234 2356
3433 2135 2313 2422
3434 2143 2394 2500
3435 2151 2467 2567
3436 2148 2538 2637
3437 2152 2565 2659
3438 2161 2548 2632
3439 2185 2534 2592
3440 2211 2520 2560
3441 2197 2450 2512
3442 2204 2352 2398
3443 2187 2250 2307
3444 2193 2171 2231
3445 2197 2129 2185
3446 2196 2072 2126
3447 2176 2036 2104
3448 2171 2038 2124
3449 2147 2062 2168
3450 2122 2079 2217
3451 2133 2163 2279
3452 2118 2254 2388
3453 2119 2338 2460
3454 2123 2416 2540
3455 2130 2483 2595
3456 2129 2541 2652
3457 2143 2580 2676
3458 2169 2578 2658
3459 2179 2551 2615
3460 2192 2524 2573
3461 2185 2448 2506
3462 2194 2375 2425
3463 2187 2304 2369
3464 2182 2214 2280
3465 2173 2143 2223
3466 2160 2082 2173
3467 2153 2039 2140
3468 2135 2039 2151
3469 2122 2057 2191
3470 2109 2099 2244
3471 2113 2187 2323
3472 2111 2280 2423
3473 2129 2361 2485
3474 2118 2436 2561
3475 2134 2507 2620
3476 2139 2564 2672
3477 2150 2596 2689
3478 2170 2603 2679
3479 2171 2593 2666
3480 2192 2548 2608
3481 2183 2472 2539
3482 2187 2384 2444
3483 2167 2296 2379
3484 2169 2229 2303
3485 2156 2155 2244
3486 2163 2098 2192
3487 2158 2066 2156
3488 2131 2059 2180
3489 2120 2090 2226
3490 2098 2117 2273
3491 2110 2203 2342
3492 2105 2306 2447
3493 2119 2397 2523
3494 2123 2467 2590
3495 2141 2519 2628
3496 2138 2589 2707
3497 2125 2640 2763
3498 2136 2629 2740
3499 2146 2602 2694
3500 2173 2557 2623
3501 2177 2493 2570
3502 2188 2421 2478
3503 2179 2332 2403
3504 2183 2257 2327
3505 2169 2191 2275
3506 2163 2117 2207
3507 2159 2077 2176
3508 2134 2081 2201
3509 2131 2105 2237
3510 2111 2142 2284
3511 2110 2229 2368
3512 2107 2308 2460
3513 2111 2390 2522
3514 2118 2487 2614
3515 2133 2557 2670
3516 2141 2624 2730
3517 2138 2648 2746
3518 2149 2632 2729
3519 2170 2619 2695
3520 2195 2597 2651
3521 2176 2511 2581
3522 2187 2425 2482
3523 2171 2337 2414
3524 2185 2270 2333
3525 2174 2212 2283
3526 2153 2142 2240
3527 2144 2105 2220
3528 2125 2106 2233
3529 2120 2135 2271
3530 2108 2173 2316
3531 2120 2251 2375
3532 2116 2329 2463
3533 2132 2412 2530
3534 2120 2495 2621
3535 2120 2562 2695
3536 2124 2616 2745
3537 2131 2637 2754
3538 2145 2637 2738
3539 2154 2633 2724
3540 2185 2628 2685
3541 2174 2559 2634
3542 2173 2469 2543
3543 2167 2373 2458
3544 2174 2293 2369
3545 2166 2237 2317
3546 2160 2168 2253
3547 2158 2124 2218
3548 2143 2131 2238
3549 2145 2144 2258
3550 2123 2173 2312
3551 2110 2253 2391
3552 2101 2332 2480
3553 2095 2419 2573
3554 2097 2506 2652
3555 2117 2578 2709
3556 2120 2632 2759
3557 2136 2671 2777
3558 2171 2677 2758
3559 2171 2653 2727
3560 2184 2618 2683
3561 2179 2552 2622
3562 2178 2479 2547
3563 2157 2406 2496
3564 2159 2314 2399
3565 2168 2248 2337
3566 2155 2191 2283
3567 2155 2154 2256
3568 2141 2135 2255
3569 2132 2157 2286
3570 2106 2180 2333
3571 2108 2265 2411
3572 2105 2353 2503
3573 2117 2443 2575
3574 2111 2512 2643
3575 2121 2574 2699
3576 2138 2643 2754
3577 2135 2684 2796
3578 2153 2686 2776
3579 2153 2677 2772
3580 2178 2656 2722
3581 2177 2575 2649
3582 2180 2491 2561
3583 2172 2418 2492
3584 2169 2329 2405
3585 2155 2264 2354
3586 2159 2202 2294
3587 2158 2156 2246
3588 2138 2157 2270
3589 2129 2180 2309
3590 2103 2210 2351
3591 2112 2299 2436
3592 2098 2388 2543
3593 2108 2469 2606
3594 2112 2550 2676
3595 2124 2614 2736
3596 2144 2680 2785
3597 2162 2720 2807
3598 2170 2719 2799
3599 2180 2716 2776
3600 2197 2683 2735
3601 2198 2610 2664
3602 2198 2536 2587
3603 2175 2448 2518
3604 2168 2358 2434
3605 2169 2297 2376
3606 2168 2233 2323
3607 2151 2202 2300
3608 2134 2205 2324
3609 2126 2207 2338
3610 2106 2241 2384
3611 2098 2318 2465
3612 2102 2405 2554
3613 2104 2502 2639
3614 2102 2581 2724
3615 2119 2648 2779
3616 2123 2708 2833
3617 2136 2751 2853
3618 2160 2753 2840
3619 2172 2740 2820
3620 2194 2724 2775
3621 2197 2653 2701
3622 2207 2573 2617
3623 2190 2496 2549
3624 2193 2407 2469
3625 2185 2342 2407
3626 2180 2281 2355
3627 2175 2231 2308
3628 2153 2223 2322
3629 2148 2250 2347
3630 2131 2281 2404
3631 2124 2358 2482
3632 2124 2446 2572
3633 2132 2530 2645
3634 2144 2603 2705
3635 2157 2673 2768
3636 2165 2739 2826
3637 2160 2781 2866
3638 2189 2785 2847
3639 2210 2762 2797
3640 2227 2739 2764
3641 2210 2689 2732
3642 2209 2632 2671
3643 2191 2541 2600
3644 2195 2450 2502
3645 2197 2367 2420
3646 2196 2300 2357
3647 2203 2267 2319
3648 2171 2249 2336
3649 2155 2261 2360
3650 2133 2285 2399
3651 2148 2369 2473
3652 2133 2436 2555
3653 2139 2520 2636
3654 2140 2594 2697
3655 2159 2662 2747
3656 2169 2715 2799
3657 2167 2755 2838
3658 2192 2757 2820
3659 2201 2747 2795
3660 2221 2721 2745
3661 2216 2656 2692
3662 2229 2579 2601
3663 2215 2501 2531
3664 2211 2415 2450
3665 2190 2329 2389
3666 2171 2278 2358
3667 2166 2239 2319
3668 2150 2212 2312
3669 2147 2241 2347
3670 2131 2281 2406
3671 2134 2348 2468
3672 2135 2420 2534
3673 2144 2499 2607
3674 2131 2579 2696
3675 2128 2654 2775
3676 2137 2705 2822
3677 2132 2754 2868
3678 2150 2757 2854
3679 2171 2730 2799
3680 2196 2689 2742
3681 2191 2622 2676
3682 2206 2542 2584
3683 2194 2452 2511
3684 2181 2381 2448
3685 2167 2312 2389
3686 2160 2241 2330
3687 2152 2190 2282
3688 2135 2190 2308
3689 2127 2222 2341
3690 2114 2251 2382
3691 2113 2321 2452
3692 2109 2382 2527
3693 2121 2475 2604
3694 2136 2565 2684
3695 2137 2636 2751
3696 2148 2707 2812
3697 2138 2740 2853
3698 2162 2742 2831
3699 2160 2720 2805
3700 2187 2694 2752
3701 2200 2622 2673
3702 2205 2547 2588
3703 2192 2460 2515
3704 2188 2372 2428
3705 2192 2304 2369
3706 2181 2249 2323
3707 2177 2196 2276
3708 2153 2186 2285
3709 2153 2211 2311
3710 2137 2246 2361
3711 2114 2309 2436
3712 2110 2377 2523
3713 2108 2481 2619
3714 2113 2559 2697
3715 2111 2630 2762
3716 2113 2688 2824
3717 2128 2744 2859
3718 2145 2754 2865
3719 2161 2739 2823
3720 2172 2700 2780
3721 2177 2649 2721
3722 2189 2570 2624
3723 2185 2469 2524
3724 2203 2407 2450
3725 2234 2357 2375
3726 2258 2300 2293
3727 2285 2258 2230
3728 2276 2262 2238
3729 2299 2295 2256
3730 2301 2345 2299
3731 2322 2451 2386
3732 2339 2565 2484
3733 2372 2695 2579
3734 2401 2825 2680
3735 2444 2956 2765
3736 2490 3081 2849
3737 2509 3171 2913
3738 2573 3212 2890
3739 2622 3233 2858
3740 2684 3252 2820
3741 2724 3247 2774
3742 2757 3233 2716
3743 2777 3138 2612
3744 2802 3043 2494
3745 2819 2956 2387
3746 2825 2888 2314
3747 2817 2802 2244
3748 2770 2767 2250
3749 2741 2767 2278
3750 2688 2770 2332
3751 2645 2799 2405
3752 2604 2842 2501
3753 2560 2926 2615
3754 2524 2967 2698
3755 2466 3000 2782
3756 2421 3023 2849
3757 2390 3031 2897
3758 2373 2997 2889
3759 2341 2935 2848
3760 2345 2861 2768
3761 2340 2759 2676
3762 2305 2651 2597
3763 2264 2532 2523
3764 2230 2438 2454
3765 2218 2362 2393
3766 2205 2292 2337
3767 2207 2245 2292
3768 2187 2250 2312
3769 2184 2275 2343
3770 2156 2306 2399
3771 2173 2378 2454
3772 2165 2439 2529
3773 2157 2533 2626
3774 2160 2606 2695
3775 2173 2664 2740
3776 2178 2718 2788
3777 2177 2757 2826
3778 2210 2766 2800
3779 2233 2762 2771
3780 2253 2724 2710
3781 2262 2643 2627
3782 2244 2563 2568
3783 2222 2458 2493
3784 2213 2379 2413
3785 2224 2323 2355
3786 2207 2263 2307
3787 2201 2207 2257
3788 2192 2200 2263
3789 2184 2201 2275
3790 2164 2232 2321
3791 2140 2299 2406
3792 2130 2365 2489
3793 2140 2468 2579
3794 2155 2552 2647
3795 2165 2622 2704
3796 2171 2678 2756
3797 2162 2710 2797
3798 2188 2719 2783
3799 2198 2706 2757
3800 2216 2673 2702
3801 2220 2605 2629
3802 2206 2530 2565
3803 2209 2449 2492
3804 2201 2390 2427
3805 2201 2323 2366
3806 2200 2260 2311
3807 2202 2201 2250
3808 2178 2179 2258
3809 2160 2203 2294
3810 2137 2228 2339
3811 2133 2302 2420
3812 2144 2377 2484
3813 2160 2478 2571
3814 2169 2568 2652
3815 2170 2620 2704
3816 2196 2674 2731
3817 2192 2726 2779
3818 2215 2749 2775
3819 2210 2721 2758
3820 2220 2673 2706
3821 2218 2611 2638
3822 2229 2550 2564
3823 2228 2445 2464
3824 2218 2363 2386
3825 2215 2293 2326
3826 2216 2237 2268
3827 2219 2191 2220
3828 2181 2176 2242
3829 2175 2200 2280
3830 2152 2247 2339
3831 2143 2314 2420
3832 2142 2394 2500
3833 2151 2478 2566
3834 2167 2545 2629
3835 2167 2613 2692
3836 2184 2674 2735
3837 2187 2730 2793
3838 2206 2746 2785
3839 2218 2737 2769
3840 2244 2725 2733
3841 2247 2650 2649
3842 2244 2565 2564
3843 2246 2480 2481
3844 2241 2411 2414
3845 2250 2339 2337
3846 2243 2280 2285
3847 2241 2240 2242
3848 2220 2238 2268
3849 2220 2248 2280
3850 2195 2267 2325
3851 2186 2343 2405
3852 2192 2416 2480
3853 2184 2499 2565
3854 2207 2577 2621
3855 2225 2652 2674
3856 2232 2711 2731
3857 2228 2760 2791
3858 2253 2786 2786
3859 2247 2790 2791
3860 2266 2752 2732
3861 2274 2667 2641
3862 2265 2587 2565
3863 2267 2506 2490
3864 2256 2443 2438
3865 2246 2366 2376
3866 2234 2302 2313
3867 2252 2251 2251
3868 2232 2253 2267
3869 2233 2283 2292
3870 2206 2306 2350
3871 2189 2371 2426
3872 2193 2424 2483
3873 2203 2528 2576
3874 2218 2617 2649
3875 2213 2707 2738
3876 2234 2775 2800
3877 2228 2804 2829
3878 2252 2809 2806
3879 2261 2789 2776
3880 2286 2770 2728
3881 2280 2702 2669
3882 2276 2628 2603
3883 2278 2541 2511
3884 2270 2466 2446
3885 2265 2399 2389
3886 2254 2336 2334
3887 2265 2298 2286
3888 2244 2293 2305
3889 2237 2309 2327
3890 2197 2337 2386
3891 2208 2404 2450
3892 2208 2468 2519
3893 2221 2569 2600
3894 2242 2658 2670
3895 2236 2736 2746
3896 2246 2787 2790
3897 2246 2834 2835
3898 2271 2848 2816
3899 2272 2834 2808
3900 2301 2807 2756
3901 2324 2759 2685
3902 2310 2690 2632
3903 2305 2608 2548
3904 2302 2535 2478
3905 2311 2470 2405
3906 2287 2398 2365
3907 2280 2359 2332
3908 2265 2362 2350
3909 2266 2383 2362
3910 2245 2409 2416
3911 2234 2469 2485
3912 2247 2519 2527
3913 2255 2610 2609
3914 2268 2694 2684
3915 2263 2778 2763
3916 2285 2857 2819
3917 2283 2904 2870
3918 2302 2905 2850
3919 2301 2883 2830
3920 2335 2868 2781
3921 2349 2799 2700
3922 2342 2728 2631
3923 2329 2637 2552
3924 2316 2557 2484
3925 2322 2484 2411
3926 2320 2433 2363
3927 2320 2384 2316
3928 2304 2368 2320
3929 2290 2369 2330
3930 2264 2395 2385
3931 2263 2465 2454
3932 2269 2541 2529
3933 2284 2638 2604
3934 2297 2715 2670
3935 2296 2791 2747
3936 2316 2856 2792
3937 2321 2912 2837
3938 2338 2922 2836
3939 2337 2899 2811
3940 2372 2886 2762
3941 2397 2825 2671
3942 2390 2761 2620
3943 2385 2677 2538
3944 2380 2609 2479
3945 2376 2542 2411
3946 2366 2477 2363
3947 2371 2422 2300
3948 2357 2418 2310
3949 2353 2437 2339
3950 2331 2491 2405
3951 2320 2529 2461
3952 2320 2585 2518
3953 2337 2661 2572
3954 2357 2755 2651
3955 2358 2850 2738
3956 2372 2902 2773
3957 2374 2947 2819
3958 2403 2970 2816
3959 2415 2948 2778
3960 2434 2910 2716
3961 2435 2861 2674
3962 2422 2795 2623
3963 2405 2706 2554
3964 2405 2651 2488
3965 2416 2573 2402
3966 2405 2488 2333
3967 2397 2432 2284
3968 2379 2427 2301
3969 2383 2444 2310
3970 2368 2478 2360
3971 2368 2549 2427
3972 2377 2611 2486
3973 2375 2694 2566
3974 2386 2765 2630
3975 2376 2843 2718
3976 2381 2906 2770
3977 2375 2950 2825
3978 2397 2970 2820
3979 2412 2960 2792
3980 2438 2939 2742
3981 2456 2892 2686
3982 2446 2836 2634
3983 2449 2748 2542
3984 2441 2668 2469
3985 2440 2579 2391
3986 2424 2524 2350
3987 2423 2476 2292
3988 2413 2460 2297
3989 2409 2472 2316
3990 2367 2517 2397
3991 2343 2576 2479
3992 2358 2654 2545
3993 2362 2746 2630
3994 2379 2817 2683
3995 2390 2894 2753
3996 2400 2964 2810
3997 2405 3027 2866
3998 2417 3048 2867
3999 2424 3024 2846
4000 2446 3000 2801
4001 2458 2950 2730
4002 2454 2884 2672
4003 2445 2784 2580
4004 2427 2703 2518
4005 2425 2633 2456
4006 2411 2573 2413
4007 2406 2537 2376
4008 2393 2511 2377
4009 2369 2517 2396
4010 2350 2537 2438
4011 2341 2590 2510
4012 2346 2662 2568
4013 2347 2752 2650
4014 2364 2835 2726
4015 2353 2913 2801
4016 2371 2974 2851
4017 2377 3025 2894
4018 2389 3039 2891
4019 2385 3012 2870
4020 2399 2974 2818
4021 2413 2915 2749
4022 2414 2855 2680
4023 2400 2740 2586
4024 2379 2651 2517
4025 2367 2581 2460
4026 2346 2518 2413
4027 2336 2439 2352
4028 2320 2413 2342
4029 2297 2406 2359
4030 2264 2418 2406
4031 2228 2459 2481
4032 2220 2513 2548
4033 2214 2600 2630
4034 2217 2647 2675
4035 2209 2709 2751
4036 2199 2775 2826
4037 2195 2823 2877
4038 2195 2823 2870
4039 2195 2797 2847
4040 2205 2766 2805
4041 2225 2717 2731
4042 2221 2655 2678
4043 2209 2559 2588
4044 2198 2475 2517
4045 2218 2410 2438
4046 2199 2346 2383
4047 2195 2289 2344
4048 2175 2277 2353
4049 2156 2267 2353
4050 2130 2290 2400
4051 2106 2346 2480
4052 2108 2405 2544
4053 2105 2494 2632
4054 2126 2570 2689
4055 2120 2638 2757
4056 2153 2703 2794
4057 2146 2768 2863
4058 2169 2778 2854
4059 2177 2767 2832
4060 2202 2740 2788
4061 2220 2689 2707
4062 2227 2625 2645
4063 2224 2552 2568
4064 2203 2482 2523
4065 2189 2398 2448
4066 2172 2321 2389
4067 2177 2259 2321
4068 2175 2244 2315
4069 2171 2256 2330
4070 2147 2279 2369
4071 2134 2321 2438
4072 2142 2385 2491
4073 2135 2479 2583
4074 2155 2551 2640
4075 2148 2618 2713
4076 2161 2673 2758
4077 2167 2727 2811
4078 2187 2756 2811
4079 2216 2746 2779
4080 2234 2704 2709
4081 2246 2653 2648
4082 2245 2595 2588
4083 2249 2492 2482
4084 2233 2400 2406
4085 2216 2313 2344
4086 2204 2256 2294
4087 2216 2214 2248
4088 2205 2204 2249
4089 2206 2205 2255
4090 2184 2219 2288
4091 2162 2254 2338
4092 2172 2307 2383
4093 2158 2390 2477
4094 2170 2462 2541
4095 2170 2534 2620
4096 2185 2600 2657
4097 2184 2631 2690
4098 2205 2641 2680
4099 2213 2619 2650
4100 2248 2592 2593
4101 2265 2539 2521
4102 2260 2472 2456
4103 2254 2387 2374
4104 2229 2311 2322
4105 2244 2226 2223
4106 2240 2164 2172
4107 2239 2085 2103
4108 2217 2051 2083
4109 2207 2058 2100
4110 2187 2075 2137
4111 2177 2112 2182
4112 2184 2173 2242
4113 2185 2262 2326
4114 2197 2327 2376
4115 2193 2387 2453
4116 2200 2454 2502
4117 2202 2504 2552
4118 2215 2527 2550
4119 2230 2506 2517
4120 2256 2471 2458
4121 2255 2407 2396
4122 2258 2347 2326
4123 2276 2251 2226
4124 2264 2159 2145
4125 2261 2066 2050
4126 2253 1994 1992
4127 2248 1949 1942
4128 2235 1928 1944
4129 2219 1931 1959
4130 2199 1943 1991
4131 2197 1999 2053
4132 2208 2051 2096
4133 2200 2126 2178
4134 2205 2197 2244
4135 2203 2264 2318
4136 2212 2329 2361
4137 2232 2378 2400
4138 2244 2394 2396
4139 2248 2366 2359
4140 2275 2338 2315
4141 2295 2300 2250
4142 2281 2209 2175
4143 2272 2097 2066
4144 2253 1996 1979
4145 2256 1914 1904
4146 2262 1869 1856
4147 2264 1813 1790
4148 2247 1773 1777
4149 2232 1770 1794
4150 2188 1785 1846
4151 2171 1822 1900
4152 2187 1882 1941
4153 2197 1969 2022
4154 2219 2050 2075
4155 2218 2121 2148
4156 2236 2178 2189
4157 2237 2224 2233
4158 2255 2235 2223
4159 2247 2203 2203
4160 2257 2164 2149
4161 2283 2114 2070
4162 2272 2031 2003
4163 2276 1952 1914
4164 2265 1869 1845
4165 2276 1776 1744
4166 2268 1696 1666
4167 2281 1631 1592
4168 2279 1595 1569
4169 2253 1595 1590
4170 2210 1601 1643
4171 2182 1631 1699
4172 2192 1674 1731
4173 2188 1735 1796
4174 2208 1800 1844
4175 2210 1878 1918
4176 2221 1942 1975
4177 2221 1990 2019
4178 2231 1996 2007
4179 2246 1984 1983
4180 2266 1938 1919
4181 2284 1876 1837
4182 2278 1798 1765
4183 2283 1698 1660
4184 2269 1604 1585
4185 2264 1503 1483
4186 2263 1423 1404
4187 2264 1363 1343
4188 2255 1335 1329
4189 2244 1344 1353
4190 2227 1356 1380
4191 2206 1386 1422
4192 2219 1441 1469
4193 2198 1518 1567
4194 2213 1575 1609
4195 2201 1617 1661
4196 2204 1649 1695
4197 2198 1690 1740
4198 2212 1698 1733
4199 2224 1670 1694
4200 2251 1632 1628
4201 2279 1583 1545
4202 2279 1499 1464
4203 2289 1396 1347
4204 2288 1311 1263
4205 2294 1230 1185
4206 2296 1166 1117
4207 2301 1095 1042
4208 2290 1055 1015
4209 2288 1032 1000
4210 2265 1046 1032
4211 2243 1067 1078
4212 2254 1116 1116
4213 2241 1193 1203
4214 2257 1240 1234
4215 2251 1275 1277
4216 2260 1312 1298
4217 2252 1340 1335
4218 2268 1369 1345
4219 2288 1349 1304
4220 2315 1301 1234
4221 2336 1234 1145
4222 2339 1144 1041
4223 2346 1034 930
4224 2333 946 849
4225 2346 850 755
4226 2343 780 683
4227 2346 712 614
4228 2338 671 585
4229 2330 681 593
4230 2317 703 634
4231 2297 736 697
4232 2301 801 753
4233 2286 877 843
4234 2298 947 898
4235 2292 1027 991
4236 2295 1099 1057
4237 2286 1147 1106
4238 2300 1173 1120
4239 2317 1166 1101
4240 2333 1160 1070
4241 2348 1120 1016
4242 2330 1045 955
4243 2345 971 868
4244 2346 921 818
4245 2367 874 750
4246 2374 828 702
4247 2371 780 655
4248 2339 764 678
4249 2299 780 734
4250 2271 812 788
4251 2258 857 851
4252 2267 934 921
4253 2263 1038 1031
4254 2278 1131 1106
4255 2262 1219 1203
4256 2263 1285 1270
4257 2252 1346 1349
4258 2255 1385 1375
4259 2265 1392 1381
4260 2279 1381 1351
4261 2304 1372 1317
4262 2299 1312 1261
4263 2301 1219 1163
4264 2296 1149 1098
4265 2320 1094 1020
4266 2302 1041 991
4267 2285 998 956
4268 2265 983 963
4269 2260 1005 991
4270 2246 1043 1046
4271 2232 1101 1122
4272 2225 1180 1210
4273 2215 1268 1314
4274 2224 1345 1371
4275 2211 1428 1468
4276 2212 1505 1546
4277 2216 1577 1620
4278 2223 1614 1642
4279 2224 1611 1638
4280 2242 1601 1612
4281 2256 1560 1549
4282 2259 1503 1494
4283 2265 1444 1426
4284 2255 1389 1381
4285 2260 1317 1315
4286 2252 1247 1242
4287 2265 1212 1198
4288 2250 1202 1205
4289 2232 1210 1224
4290 2212 1228 1265
4291 2196 1287 1345
4292 2202 1376 1426
4293 2189 1472 1532
4294 2191 1533 1591
4295 2194 1605 1662
4296 2204 1671 1719
4297 2201 1731 1784
4298 2212 1779 1815
4299 2221 1787 1820
4300 2239 1780 1788
4301 2252 1740 1731
4302 2255 1669 1669
4303 2259 1614 1606
4304 2239 1552 1563
4305 2244 1477 1489
4306 2232 1420 1438
4307 2238 1362 1372
4308 2243 1348 1358
4309 2234 1364 1378
4310 2207 1389 1432
4311 2186 1438 1502
4312 2196 1525 1583
4313 2187 1635 1700
4314 2194 1715 1774
4315 2184 1790 1858
4316 2194 1842 1901
4317 2198 1889 1947
4318 2210 1932 1976
4319 2229 1941 1963
4320 2247 1919 1917
4321 2272 1872 1853
4322 2257 1804 1798
4323 2277 1739 1713
4324 2253 1673 1678
4325 2245 1598 1609
4326 2250 1550 1551
4327 2254 1504 1501
4328 2245 1478 1483
4329 2242 1471 1480
4330 2237 1494 1510
4331 2221 1536 1574
4332 2221 1614 1647
4333 2209 1704 1750
4334 2201 1789 1834
4335 2183 1861 1928
4336 2189 1925 1994
4337 2196 1998 2057
4338 2208 2038 2077
4339 2238 2028 2038
4340 2254 1999 1991
4341 2267 1965 1946
4342 2263 1892 1876
4343 2272 1810 1788
4344 2269 1737 1719
4345 2285 1678 1645
4346 2278 1622 1594
4347 2278 1566 1537
4348 2272 1531 1512
4349 2248 1538 1544
4350 2226 1563 1590
4351 2221 1608 1643
4352 2233 1683 1704
4353 2202 1769 1819
4354 2189 1827 1889
4355 2194 1898 1947
4356 2200 1972 2020
4357 2205 2019 2068
4358 2214 2043 2081
4359 2224 2036 2061
4360 2233 2026 2042
4361 2256 1997 1989
4362 2249 1931 1934
4363 2263 1855 1836
4364 2247 1773 1772
4365 2254 1706 1699
4366 2258 1646 1637
4367 2265 1608 1591
4368 2248 1575 1588
4369 2215 1600 1632
4370 2196 1616 1668
4371 2187 1642 1712
4372 2191 1713 1771
4373 2177 1801 1876
4374 2187 1884 1946
4375 2185 1961 2031
4376 2192 2013 2073
4377 2185 2066 2128
4378 2188 2104 2157
4379 2202 2111 2161
4380 2206 2093 2131
4381 2227 2061 2079
4382 2238 1985 1993
4383 2264 1896 1884
4384 2255 1829 1824
4385 2251 1759 1756
4386 2235 1708 1724
4387 2235 1654 1670
4388 2225 1619 1645
4389 2206 1620 1662
4390 2191 1652 1707
4391 2167 1692 1774
4392 2173 1762 1837
4393 2166 1846 1938
4394 2180 1929 2004
4395 2173 2012 2096
4396 2184 2079 2147
4397 2181 2097 2169
4398 2197 2109 2160
4399 2206 2103 2152
4400 2210 2093 2135
4401 2242 2067 2077
4402 2247 1998 1999
4403 2267 1929 1908
4404 2261 1859 1850
4405 2252 1781 1774
4406 2246 1726 1740
4407 2245 1674 1669
4408 2236 1636 1657
4409 2221 1642 1673
4410 2195 1667 1724
4411 2168 1706 1787
4412 2178 1772 1842
4413 2166 1859 1949
4414 2170 1937 2017
4415 2156 2011 2110
4416 2158 2091 2192
4417 2156 2157 2253
4418 2152 2188 2289
4419 2166 2186 2266
4420 2180 2175 2244
4421 2200 2134 2185
4422 2209 2073 2114
4423 2230 2002 2023
4424 2244 1936 1950
4425 2274 1883 1857
4426 2309 1835 1779
4427 2331 1795 1711
4428 2353 1781 1676
4429 2367 1812 1698
4430 2380 1873 1742
4431 2384 1943 1806
4432 2408 2050 1893
4433 2422 2174 2001
4434 2457 2294 2078
4435 2479 2438 2217
4436 2499 2550 2305
4437 2532 2635 2356
4438 2574 2678 2351
4439 2620 2718 2353
4440 2665 2774 2351
4441 2715 2817 2351
4442 2730 2802 2318
4443 2779 2709 2178
4444 2782 2632 2092
4445 2806 2542 1973
4446 2800 2456 1890
4447 2803 2370 1805
4448 2786 2321 1773
4449 2739 2313 1814
4450 2690 2314 1864
4451 2641 2323 1928
4452 2595 2362 2013
4453 2544 2405 2113
4454 2510 2466 2212
4455 2470 2514 2300
4456 2418 2555 2380
4457 2358 2566 2457
4458 2300 2552 2509
4459 2287 2516 2481
4460 2281 2455 2419
4461 2290 2401 2356
4462 2266 2285 2275
4463 2252 2169 2173
4464 2215 2085 2125
4465 2195 2010 2057
4466 2190 1951 2011
4467 2204 1907 1951
4468 2202 1876 1926
4469 2185 1889 1946
4470 2178 1925 1992
4471 2164 1959 2038
4472 2169 2026 2108
4473 2153 2105 2204
4474 2167 2172 2259
4475 2163 2258 2345
4476 2170 2316 2395
4477 2165 2354 2437
4478 2167 2380 2456
4479 2184 2389 2452
4480 2198 2383 2433
4481 2214 2354 2392
4482 2216 2282 2316
4483 2228 2214 2231
4484 2207 2146 2189
4485 2209 2074 2107
4486 2209 1999 2028
4487 2210 1934 1973
4488 2195 1916 1971
4489 2177 1922 1993
4490 2168 1943 2027
4491 2141 1962 2077
4492 2125 2031 2150
4493 2111 2111 2255
4494 2125 2212 2332
4495 2129 2302 2422
4496 2144 2380 2477
4497 2143 2430 2542
4498 2146 2460 2553
4499 2160 2449 2538
4500 2171 2435 2508
4501 2194 2418 2467
4502 2198 2355 2399
4503 2210 2281 2312
4504 2194 2198 2256
4505 2190 2123 2188
4506 2194 2081 2130
4507 2188 2017 2076
4508 2181 1993 2062
4509 2163 2007 2094
4510 2144 2035 2144
4511 2126 2067 2189
4512 2132 2135 2255
4513 2119 2224 2351
4514 2130 2311 2430
4515 2124 2382 2503
4516 2132 2442 2554
4517 2128 2496 2621
4518 2120 2540 2661
4519 2141 2553 2659
4520 2156 2551 2637
4521 2176 2533 2597
4522 2189 2474 2531
4523 2210 2403 2439
4524 2189 2317 2374
4525 2198 2247 2305
4526 2191 2201 2261
4527 2192 2156 2213
4528 2181 2133 2202
4529 2152 2150 2248
4530 2131 2168 2290
4531 2101 2192 2346
4532 2094 2265 2415
4533 2098 2354 2504
4534 2103 2445 2585
4535 2103 2520 2662
4536 2113 2582 2716
4537 2115 2644 2779
4538 2122 2685 2806
4539 2134 2689 2798
4540 2122 2676 2797
4541 2137 2654 2761
4542 2137 2587 2695
4543 2146 2528 2623
4544 2131 2467 2581
4545 2135 2388 2490
4546 2144 2330 2432
4547 2146 2276 2374
4548 2153 2242 2333
4549 2143 2254 2351
4550 2139 2287 2396
4551 2112 2329 2464
4552 2101 2394 2538
4553 2102 2492 2639
4554 2111 2573 2700
4555 2109 2649 2779
4556 2111 2702 2834
4557 2110 2762 2904
4558 2100 2797 2937
4559 2125 2806 2928
4560 2127 2796 2904
4561 2151 2772 2864
4562 2157 2701 2784
4563 2191 2626 2677
4564 2190 2547 2606
4565 2183 2477 2537
4566 2161 2438 2520
4567 2162 2394 2472
4568 2176 2359 2437
4569 2151 2357 2455
4570 2133 2370 2488
4571 2112 2412 2547
4572 2116 2493 2622
4573 2105 2564 2703
4574 2110 2651 2781
4575 2096 2731 2881
4576 2102 2784 2935
4577 2099 2846 2991
4578 2115 2877 3009
4579 2142 2885 2990
4580 2146 2877 2970
4581 2158 2851 2932
4582 2154 2780 2867
4583 2169 2715 2790
4584 2162 2642 2724
4585 2163 2578 2651
4586 2172 2517 2596
4587 2179 2477 2546
4588 2187 2452 2515
4589 2165 2455 2537
4590 2150 2478 2580
4591 2135 2502 2624
4592 2125 2567 2694
4593 2117 2635 2763
4594 2126 2721 2844
4595 2120 2821 2942
4596 2124 2891 3014
4597 2125 2940 3060
4598 2139 2972 3085
4599 2157 2989 3072
4600 2173 2967 3041
4601 2191 2939 3000
4602 2199 2881 2931
4603 2208 2817 2844
4604 2210 2748 2778
4605 2227 2669 2688
4606 2222 2628 2655
4607 2197 2581 2634
4608 2186 2548 2611
4609 2163 2545 2628
4610 2151 2575 2672
4611 2142 2610 2715
4612 2137 2679 2791
4613 2140 2761 2867
4614 2149 2839 2933
4615 2138 2916 3018
4616 2140 2970 3073
4617 2166 3045 3130
4618 2157 3094 3177
4619 2175 3093 3160
4620 2189 3091 3145
4621 2219 3062 3087
4622 2225 2987 3010
4623 2253 2925 2917
4624 2246 2847 2853
4625 2250 2782 2776
4626 2252 2726 2724
4627 2244 2681 2686
4628 2238 2651 2664
4629 2226 2640 2667
4630 2218 2659 2694
4631 2188 2689 2744
4632 2180 2752 2822
4633 2165 2822 2909
4634 2180 2907 2975
4635 2191 2988 3047
4636 2203 3051 3094
4637 2201 3112 3153
4638 2202 3141 3179
4639 2240 3134 3146
4640 2255 3127 3119
4641 2286 3116 3075
4642 2308 3051 2991
4643 2311 2971 2909
4644 2306 2892 2832
4645 2323 2819 2747
4646 2312 2753 2691
4647 2302 2693 2629
4648 2315 2677 2614
4649 2283 2688 2650
4650 2281 2707 2679
4651 2264 2723 2711
4652 2251 2779 2779
4653 2254 2850 2841
4654 2269 2924 2902
4655 2293 3002 2954
4656 2276 3052 3021
4657 2271 3104 3082
4658 2256 3132 3131
4659 2280 3147 3112
4660 2291 3124 3078
4661 2314 3088 3024
4662 2319 3020 2946
4663 2326 2941 2854
4664 2323 2846 2770
4665 2340 2786 2686
4666 2342 2727 2633
4667 2340 2669 2573
4668 2337 2627 2540
4669 2324 2642 2562
4670 2326 2661 2588
4671 2307 2676 2626
4672 2298 2728 2680
4673 2286 2783 2747
4674 2299 2866 2822
4675 2290 2939 2902
4676 2282 2989 2959
4677 2285 3025 2994
4678 2280 3063 3034
4679 2281 3058 3028
4680 2274 3026 2996
4681 2301 2997 2940
4682 2311 2940 2871
4683 2328 2868 2783
4684 2333 2784 2692
4685 2333 2704 2614
4686 2350 2651 2551
4687 2320 2587 2518
4688 2304 2546 2486
4689 2292 2527 2480
4690 2288 2540 2499
4691 2262 2565 2561
4692 2245 2623 2621
4693 2248 2675 2676
4694 2261 2757 2756
4695 2244 2826 2839
4696 2229 2883 2907
4697 2235 2940 2954
4698 2236 2965 2979
4699 2250 2962 2958
4700 2256 2956 2942
4701 2267 2923 2902
4702 2271 2842 2818
4703 2268 2756 2728
4704 2257 2686 2668
4705 2249 2608 2604
4706 2252 2549 2549
4707 2233 2487 2500
4708 2249 2443 2442
4709 2238 2438 2448
4710 2231 2454 2480
4711 2201 2486 2535
4712 2194 2543 2593
4713 2184 2591 2654
4714 2186 2669 2730
4715 2197 2749 2798
4716 2205 2810 2853
4717 2193 2853 2908
4718 2178 2883 2949
4719 2203 2888 2930
4720 2204 2876 2916
4721 2219 2852 2883
4722 2232 2795 2803
4723 2233 2717 2726
4724 2236 2617 2626
4725 2243 2530 2538
4726 2244 2477 2484
4727 2233 2425 2439
4728 2232 2392 2406
4729 2202 2371 2414
4730 2178 2387 2461
4731 2149 2414 2518
4732 2142 2484 2591
4733 2147 2546 2646
4734 2141 2613 2712
4735 2148 2687 2787
4736 2134 2743 2848
4737 2137 2803 2905
4738 2133 2838 2947
4739 2161 2846 2928
4740 2163 2829 2908
4741 2194 2806 2860
4742 2215 2756 2788
4743 2208 2689 2723
4744 2198 2600 2643
4745 2190 2513 2570
4746 2185 2436 2496
4747 2183 2388 2450
4748 2192 2375 2432
4749 2174 2369 2446
4750 2170 2378 2453
4751 2150 2399 2494
4752 2143 2462 2572
4753 2137 2536 2644
4754 2143 2608 2710
4755 2140 2676 2779
4756 2121 2731 2851
4757 2137 2806 2913
4758 2145 2824 2923
4759 2170 2806 2882
4760 2171 2786 2858
4761 2187 2768 2827
4762 2189 2698 2752
4763 2215 2650 2681
4764 2200 2584 2631
4765 2191 2512 2568
4766 2177 2440 2499
4767 2180 2362 2424
4768 2182 2311 2374
4769 2179 2310 2380
4770 2168 2329 2414
4771 2138 2355 2459
4772 2142 2422 2530
4773 2142 2491 2597
4774 2151 2571 2665
4775 2160 2643 2731
4776 2142 2678 2775
4777 2159 2735 2831
4778 2159 2779 2869
4779 2178 2779 2844
4780 2181 2771 2826
4781 2202 2741 2773
4782 2212 2643 2680
4783 2226 2579 2595
4784 2220 2506 2522
4785 2215 2446 2475
4786 2212 2389 2425
4787 2201 2321 2372
4788 2205 2274 2313
4789 2199 2280 2328
4790 2202 2291 2339
4791 2180 2314 2385
4792 2165 2368 2452
4793 2173 2431 2513
4794 2160 2514 2600
4795 2172 2576 2653
4796 2162 2635 2721
4797 2159 2697 2786
4798 2154 2731 2821
4799 2183 2728 2783
4800 2200 2713 2758
4801 2228 2691 2713
4802 2231 2627 2642
4803 2229 2551 2561
4804 2225 2466 2479
4805 2226 2404 2419
4806 2233 2356 2360
4807 2227 2291 2304
4808 2241 2239 2250
4809 2214 2218 2250
4810 2210 2226 2262
4811 2188 2256 2314
4812 2179 2305 2373
4813 2174 2368 2444
4814 2169 2454 2534
4815 2178 2519 2592
4816 2169 2557 2629
4817 2185 2606 2676
4818 2168 2646 2720
4819 2196 2659 2703
4820 2209 2649 2683
4821 2250 2622 2626
4822 2256 2557 2550
4823 2254 2487 2476
4824 2255 2399 2391
4825 2259 2327 2315
4826 2264 2264 2251
4827 2258 2209 2197
4828 2276 2153 2128
4829 2254 2156 2151
4830 2235 2155 2179
4831 2195 2175 2231
4832 2182 2233 2297
4833 2179 2295 2366
4834 2196 2374 2427
4835 2193 2439 2492
4836 2204 2499 2542
4837 2213 2554 2600
4838 2189 2593 2647
4839 2218 2598 2626
4840 2227 2601 2621
4841 2247 2578 2577
4842 2263 2499 2485
4843 2259 2415 2395
4844 2264 2349 2337
4845 2273 2301 2277
4846 2285 2215 2172
4847 2258 2143 2132
4848 2260 2098 2089
4849 2226 2093 2115
4850 2226 2116 2139
4851 2198 2138 2193
4852 2190 2215 2275
4853 2196 2262 2314
4854 2211 2342 2380
4855 2206 2408 2452
4856 2212 2473 2507
4857 2217 2532 2563
4858 2211 2577 2616
4859 2232 2578 2591
4860 2243 2562 2571
4861 2247 2541 2542
4862 2257 2476 2464
4863 2259 2406 2395
4864 2264 2340 2331
4865 2241 2282 2291
4866 2246 2208 2210
4867 2250 2139 2135
4868 2259 2091 2080
4869 2242 2088 2100
4870 2234 2108 2119
4871 2209 2134 2181
4872 2188 2195 2257
4873 2198 2262 2319
4874 2207 2351 2389
4875 2206 2399 2447
4876 2184 2447 2513
4877 2193 2516 2569
4878 2185 2570 2629
4879 2214 2575 2603
4880 2222 2565 2580
4881 2248 2533 2533
4882 2258 2463 2447
4883 2245 2380 2381
4884 2249 2298 2299
4885 2242 2228 2232
4886 2250 2164 2164
4887 2230 2101 2120
4888 2243 2056 2064
4889 2224 2040 2068
4890 2228 2053 2074
4891 2205 2077 2125
4892 2196 2136 2193
4893 2199 2194 2247
4894 2218 2291 2326
4895 2220 2361 2394
4896 2199 2410 2459
4897 2223 2458 2483
4898 2214 2491 2525
4899 2218 2493 2523
4900 2219 2489 2522
4901 2241 2475 2480
4902 2260 2413 2396
4903 2256 2328 2319
4904 2247 2226 2225
4905 2238 2148 2149
4906 2254 2082 2082
4907 2247 2032 2035
4908 2260 2003 1987
4909 2243 1982 1993
4910 2236 1984 2000
4911 2205 2002 2045
4912 2183 2045 2109
4913 2183 2099 2171
4914 2188 2204 2261
4915 2209 2285 2329
4916 2209 2358 2391
4917 2216 2407 2437
4918 2206 2452 2486
4919 2224 2465 2488
4920 2229 2447 2465
4921 2248 2405 2409
4922 2258 2336 2325
4923 2263 2271 2256
4924 2264 2187 2170
4925 2247 2120 2117
4926 2261 2052 2039
4927 2269 1993 1974
4928 2270 1942 1913
4929 2256 1929 1927
4930 2251 1945 1949
4931 2214 1957 1997
4932 2187 2005 2067
4933 2187 2070 2137
4934 2187 2161 2229
4935 2200 2226 2281
4936 2194 2293 2346
4937 2205 2351 2396
4938 2190 2401 2458
4939 2212 2426 2459
4940 2225 2416 2439
4941 2256 2364 2354
4942 2269 2298 2274
4943 2268 2241 2225
4944 2259 2156 2150
4945 2251 2082 2084
4946 2258 2012 2002
4947 2242 1955 1962
4948 2248 1907 1906
4949 2228 1885 1912
4950 2228 1899 1919
4951 2203 1930 1975
4952 2196 1988 2047
4953 2207 2055 2109
4954 2200 2146 2201
4955 2194 2200 2254
4956 2197 2253 2299
4957 2211 2303 2348
4958 2195 2349 2406
4959 2198 2361 2408
4960 2214 2354 2387
4961 2250 2323 2319
4962 2264 2248 2232
4963 2264 2172 2159
4964 2265 2085 2067
4965 2259 2016 2011
4966 2257 1959 1950
4967 2263 1907 1889
4968 2265 1862 1844
4969 2244 1843 1852
4970 2244 1850 1864
4971 2214 1880 1913
4972 2194 1923 1981
4973 2189 1977 2041
4974 2197 2057 2113
4975 2212 2125 2167
4976 2207 2201 2244
4977 2222 2255 2289
4978 2191 2287 2338
4979 2220 2299 2321
4980 2238 2299 2309
4981 2266 2275 2259
4982 2273 2190 2161
4983 2265 2131 2107
4984 2257 2042 2029
4985 2248 1974 1971
4986 2257 1902 1886
4987 2261 1833 1822
4988 2266 1790 1771
4989 2250 1782 1778
4990 2251 1799 1799
4991 2231 1824 1841
4992 2209 1867 1911
4993 2212 1925 1969
4994 2208 2010 2053
4995 2222 2057 2089
4996 2235 2149 2165
4997 2248 2222 2227
4998 2243 2259 2263
4999 2253 2266 2258
5000 2269 2251 2231
5001 2277 2233 2206
5002 2287 2191 2156
5003 2278 2117 2079
5004 2277 2036 2006
5005 2262 1964 1942
5006 2258 1880 1875
5007 2249 1827 1820
5008 2267 1777 1758
5009 2260 1762 1760
5010 2248 1781 1782
5011 2212 1808 1852
5012 2206 1869 1919
5013 2196 1924 1982
5014 2191 2016 2080
5015 2210 2104 2145
5016 2206 2179 2224
5017 2225 2246 2271
5018 2224 2283 2310
5019 2234 2292 2304
5020 2252 2306 2297
5021 2262 2276 2263
5022 2270 2213 2185
5023 2270 2134 2113
5024 2274 2059 2024
5025 2266 1993 1971
5026 2274 1929 1898
5027 2262 1866 1855
5028 2260 1810 1791
5029 2252 1800 1800
5030 2249 1813 1815
5031 2229 1835 1861
5032 2207 1897 1941
5033 2210 1966 2004
5034 2210 2054 2095
5035 2215 2139 2170
5036 2208 2213 2251
5037 2215 2256 2295
5038 2210 2310 2349
5039 2229 2348 2364
5040 2249 2335 2335
5041 2273 2298 2276
5042 2284 2249 2208
5043 2297 2182 2139
5044 2295 2091 2046
5045 2275 2020 1997
5046 2285 1958 1914
5047 2271 1897 1874
5048 2278 1862 1830
5049 2260 1847 1838
5050 2254 1836 1839
5051 2233 1850 1865
5052 2215 1894 1925
5053 2210 1952 1996
5054 2194 2042 2100
5055 2207 2123 2169
5056 2200 2196 2243
5057 2203 2254 2292
5058 2211 2305 2338
5059 2231 2322 2337
5060 2238 2311 2325
5061 2243 2284 2286
5062 2267 2241 2224
5063 2261 2176 2162
5064 2266 2088 2067
5065 2261 2032 2019
5066 2274 1963 1938
5067 2260 1897 1891
5068 2252 1846 1847
5069 2227 1831 1857
5070 2223 1846 1881
5071 2194 1863 1924
5072 2183 1921 1994
5073 2187 1993 2065
5074 2175 2082 2164
5075 2186 2137 2209
5076 2177 2198 2274
5077 2183 2252 2314
5078 2182 2300 2362
5079 2190 2326 2380
5080 2199 2333 2380
5081 2231 2320 2336
5082 2245 2269 2264
5083 2246 2208 2209
5084 2251 2111 2104
5085 2244 2042 2052
5086 2252 1971 1979
5087 2239 1908 1915
5088 2246 1871 1880
5089 2216 1860 1902
5090 2187 1858 1924
5091 2161 1887 1970
5092 2157 1938 2035
5093 2172 2013 2097
5094 2161 2095 2184
5095 2183 2170 2239
5096 2181 2265 2343
5097 2188 2339 2405
5098 2175 2376 2451
5099 2189 2383 2439
5100 2199 2367 2412
5101 2229 2339 2356
5102 2243 2283 2283
5103 2223 2213 2237
5104 2223 2141 2161
5105 2228 2075 2091
5106 2243 2007 2012
5107 2233 1934 1956
5108 2237 1896 1906
5109 2213 1874 1921
5110 2183 1888 1957
5111 2169 1910 1994
5112 2156 1986 2082
5113 2143 2062 2162
5114 2128 2141 2265
5115 2140 2216 2328
5116 2138 2300 2414
5117 2144 2369 2476
5118 2138 2421 2534
5119 2128 2438 2550
5120 2159 2433 2523
5121 2221 2432 2451
5122 2270 2390 2367
5123 2277 2339 2309
5124 2311 2270 2202
5125 2319 2207 2129
5126 2353 2158 2051
5127 2368 2117 1990
5128 2404 2092 1931
5129 2418 2119 1947
5130 2438 2183 1985
5131 2447 2249 2050
5132 2440 2349 2159
5133 2486 2464 2228
5134 2502 2580 2329
5135 2561 2688 2377
5136 2610 2802 2440
5137 2666 2919 2504
5138 2695 3016 2585
5139 2731 3110 2623
5140 2774 3108 2577
5141 2829 3103 2520
5142 2867 3071 2447
5143 2886 3005 2363
5144 2889 2900 2253
5145 2858 2786 2167
5146 2860 2674 2057
5147 2832 2594 2004
5148 2809 2515 1946
5149 2765 2468 1943
5150 2695 2465 2006
5151 2623 2452 2077
5152 2531 2472 2194
5153 2472 2491 2275
5154 2425 2514 2338
5155 2406 2525 2364
5156 2363 2538 2420
5157 2344 2559 2457
5158 2316 2568 2507
5159 2292 2541 2498
5160 2259 2509 2496
5161 2261 2473 2458
5162 2258 2418 2402
5163 2247 2343 2343
5164 2258 2250 2238
5165 2257 2192 2180
5166 2277 2153 2118
5167 2281 2080 2049
5168 2287 2005 1969
5169 2267 1961 1945
5170 2260 1978 1962
5171 2231 2008 2027
5172 2206 2045 2096
5173 2208 2088 2137
5174 2202 2163 2214
5175 2212 2256 2293
5176 2212 2346 2384
5177 2223 2390 2418
5178 2211 2409 2444
5179 2229 2441 2458
5180 2243 2432 2442
5181 2263 2405 2386
5182 2265 2357 2338
5183 2230 2274 2285
5184 2248 2185 2187
5185 2243 2110 2114
5186 2239 2039 2046
5187 2236 1968 1982
5188 2254 1929 1929
5189 2247 1902 1909
5190 2239 1932 1943
5191 2218 1957 1993
5192 2198 1992 2050
5193 2193 2063 2119
5194 2183 2153 2219
5195 2189 2210 2266
5196 2178 2264 2337
5197 2187 2329 2390
5198 2179 2385 2455
5199 2180 2394 2461
5200 2193 2383 2435
5201 2218 2362 2388
5202 2239 2319 2325
5203 2242 2251 2248
5204 2258 2169 2161
5205 2241 2110 2109
5206 2247 2029 2028
5207 2245 1964 1972
5208 2250 1934 1935
5209 2237 1903 1918
5210 2228 1905 1922
5211 2209 1917 1959
5212 2187 1974 2039
5213 2189 2050 2110
5214 2187 2139 2201
5215 2207 2209 2247
5216 2197 2274 2324
5217 2202 2333 2387
5218 2184 2385 2445
5219 2180 2400 2460
5220 2192 2390 2439
5221 2223 2357 2380
5222 2240 2317 2326
5223 2235 2258 2268
5224 2256 2177 2167
5225 2255 2106 2103
5226 2249 2023 2022
5227 2244 1965 1967
5228 2255 1917 1908
5229 2245 1891 1892
5230 2235 1892 1912
5231 2210 1918 1962
5232 2181 1956 2024
5233 2197 2035 2087
5234 2206 2137 2181
5235 2212 2207 2245
5236 2202 2275 2314
5237 2197 2332 2381
5238 2181 2382 2450
5239 2202 2406 2460
5240 2215 2399 2435
5241 2240 2376 2390
5242 2256 2345 2327
5243 2261 2287 2269
5244 2280 2196 2170
5245 2267 2124 2102
5246 2272 2039 2012
5247 2262 1989 1973
5248 2269 1954 1930
5249 2260 1924 1916
5250 2249 1931 1930
5251 2232 1950 1969
5252 2208 1997 2038
5253 2216 2061 2095
5254 2174 2130 2205
5255 2188 2192 2255
5256 2182 2279 2334
5257 2192 2344 2400
5258 2199 2399 2447
5259 2212 2415 2455
5260 2220 2413 2441
5261 2238 2393 2398
5262 2252 2344 2333
5263 2263 2291 2282
5264 2281 2215 2180
5265 2272 2144 2116
5266 2279 2061 2032
5267 2273 2005 1983
5268 2278 1956 1931
5269 2276 1938 1914
5270 2268 1960 1946
5271 2256 1990 1982
5272 2234 2009 2026
5273 2229 2066 2086
5274 2216 2157 2185
5275 2237 2233 2248
5276 2224 2319 2339
5277 2230 2367 2389
5278 2224 2416 2444
5279 2222 2433 2459
5280 2231 2432 2445
5281 2244 2405 2403
5282 2278 2383 2350
5283 2273 2323 2293
5284 2293 2244 2204
5285 2284 2186 2145
5286 2293 2109 2064
5287 2291 2041 1991
5288 2307 1985 1931
5289 2308 1956 1897
5290 2301 1967 1916
5291 2283 2005 1982
5292 2249 2040 2045
5293 2252 2109 2111
5294 2231 2190 2210
5295 2251 2275 2273
5296 2251 2341 2341
5297 2253 2383 2386
5298 2251 2445 2441
5299 2260 2477 2465
5300 2274 2469 2445
5301 2292 2440 2393
5302 2312 2422 2358
5303 2305 2367 2312
5304 2314 2275 2212
5305 2295 2186 2132
5306 2309 2108 2046
5307 2301 2057 2001
5308 2309 2013 1946
5309 2312 1996 1931
5310 2299 2000 1954
5311 2288 2027 1993
5312 2279 2072 2049
5313 2281 2141 2114
5314 2273 2229 2212
5315 2299 2320 2281
5316 2287 2397 2361
5317 2291 2455 2419
5318 2284 2498 2461
5319 2293 2516 2474
5320 2308 2507 2445
5321 2337 2489 2403
5322 2373 2469 2352
5323 2355 2402 2305
5324 2347 2330 2230
5325 2345 2257 2148
5326 2358 2179 2065
5327 2351 2124 2008
5328 2361 2072 1956
5329 2356 2037 1928
5330 2351 2049 1949
5331 2334 2082 1993
5332 2327 2111 2043
5333 2331 2202 2116
5334 2322 2278 2202
5335 2335 2338 2252
5336 2323 2415 2346
5337 2328 2482 2401
5338 2338 2543 2453
5339 2344 2563 2469
5340 2362 2561 2453
5341 2369 2542 2423
5342 2397 2499 2350
5343 2394 2427 2279
5344 2398 2347 2194
5345 2399 2291 2135
5346 2414 2216 2041
5347 2408 2144 1978
5348 2420 2113 1927
5349 2417 2092 1924
5350 2397 2094 1944
5351 2382 2113 1980
5352 2371 2163 2043
5353 2371 2254 2127
5354 2357 2315 2214
5355 2356 2370 2260
5356 2363 2438 2319
5357 2366 2504 2391
5358 2360 2551 2446
5359 2364 2572 2449
5360 2382 2566 2432
5361 2394 2555 2407
5362 2407 2527 2364
5363 2410 2460 2297
5364 2426 2395 2210
5365 2410 2328 2155
5366 2428 2262 2077
5367 2424 2184 2000
5368 2422 2120 1949
5369 2404 2099 1943
5370 2382 2097 1957
5371 2377 2130 1997
5372 2361 2166 2053
5373 2358 2218 2108
5374 2343 2298 2204
5375 2355 2370 2265
5376 2349 2442 2346
5377 2356 2511 2401
5378 2356 2563 2460
5379 2354 2586 2476
5380 2369 2597 2478
5381 2382 2580 2443
5382 2397 2539 2387
5383 2386 2453 2317
5384 2395 2373 2226
5385 2384 2305 2159
5386 2380 2223 2083
5387 2380 2156 2020
5388 2368 2103 1969
5389 2366 2080 1960
5390 2348 2084 1981
5391 2327 2101 2023
5392 2300 2128 2080
5393 2297 2202 2152
5394 2287 2293 2254
5395 2284 2355 2321
5396 2271 2415 2392
5397 2282 2473 2438
5398 2285 2523 2483
5399 2279 2546 2507
5400 2282 2534 2505
5401 2284 2510 2472
5402 2309 2467 2405
5403 2315 2404 2329
5404 2333 2336 2249
5405 2328 2282 2197
5406 2336 2218 2117
5407 2325 2138 2055
5408 2302 2061 2008
5409 2284 2021 1990
5410 2268 2017 1997
5411 2254 2032 2033
5412 2219 2068 2093
5413 2222 2133 2162
5414 2202 2195 2243
5415 2208 2276 2315
5416 2207 2350 2396
5417 2212 2410 2442
5418 2194 2440 2494
5419 2213 2485 2514
5420 2229 2485 2503
5421 2225 2453 2465
5422 2255 2420 2412
5423 2247 2359 2353
5424 2271 2284 2261
5425 2253 2200 2197
5426 2240 2121 2121
5427 2231 2048 2065
5428 2244 2004 2009
5429 2255 1984 1982
5430 2224 1977 1994
5431 2205 1980 2031
5432 2180 2013 2075
5433 2193 2077 2133
5434 2179 2166 2241
5435 2192 2252 2304
5436 2192 2305 2362
5437 2199 2358 2405
5438 2196 2408 2460
5439 2188 2436 2498
5440 2204 2446 2490
5441 2210 2425 2459
5442 2236 2373 2388
5443 2226 2314 2337
5444 2238 2239 2246
5445 2219 2178 2205
5446 2226 2103 2124
5447 2211 2014 2050
5448 2213 1952 1987
5449 2211 1932 1966
5450 2213 1944 1975
5451 2200 1955 2006
5452 2173 1978 2055
5453 2177 2049 2121
5454 2160 2112 2203
5455 2172 2191 2263
5456 2177 2266 2330
5457 2182 2327 2398
5458 2165 2388 2471
5459 2169 2430 2506
5460 2190 2432 2492
5461 2206 2410 2448
5462 2245 2379 2381
5463 2251 2300 2300
5464 2256 2217 2208
5465 2234 2136 2155
5466 2231 2062 2072
5467 2230 2006 2021
5468 2233 1963 1977
5469 2225 1927 1950
5470 2197 1917 1972
5471 2178 1924 1995
5472 2152 1962 2057
5473 2155 2035 2126
5474 2165 2106 2189
5475 2185 2194 2251
5476 2181 2280 2346
5477 2169 2336 2414
5478 2172 2384 2459
5479 2177 2407 2463
5480 2208 2404 2450
5481 2218 2395 2430
5482 2219 2368 2393
5483 2220 2293 2318
5484 2232 2205 2218
5485 2219 2127 2151
5486 2240 2069 2078
5487 2232 2011 2023
5488 2220 1961 1983
5489 2219 1928 1958
5490 2211 1937 1977
5491 2194 1955 2013
5492 2167 1979 2057
5493 2173 2034 2113
5494 2170 2106 2191
5495 2184 2189 2258
5496 2179 2262 2329
5497 2179 2316 2386
5498 2172 2371 2448
5499 2173 2406 2473
5500 2206 2403 2443
5501 2218 2389 2417
5502 2232 2369 2374
5503 2231 2296 2313
5504 2240 2216 2214
5505 2237 2139 2143
5506 2225 2061 2085
5507 2216 1992 2024
5508 2227 1957 1981
5509 2222 1943 1961
5510 2211 1944 1980
5511 2200 1952 2002
5512 2180 1970 2034
5513 2175 2027 2099
5514 2177 2101 2179
5515 2194 2187 2235
5516 2198 2264 2319
5517 2175 2320 2386
5518 2180 2369 2438
5519 2177 2394 2462
5520 2201 2400 2445
5521 2216 2407 2436
5522 2254 2386 2381
5523 2260 2298 2289
5524 2256 2212 2208
5525 2243 2134 2136
5526 2244 2049 2047
5527 2246 1998 2005
5528 2237 1952 1965
5529 2230 1930 1939
5530 2222 1921 1947
5531 2208 1934 1975
5532 2185 1961 2025
5533 2185 2029 2096
5534 2179 2110 2182
5535 2198 2176 2230
5536 2194 2249 2304
5537 2204 2316 2363
5538 2196 2385 2436
5539 2197 2419 2472
5540 2211 2416 2456
5541 2212 2390 2433
5542 2227 2350 2363
5543 2229 2266 2285
5544 2240 2206 2207
5545 2242 2142 2142
5546 2252 2083 2073
5547 2248 2003 2001
5548 2242 1922 1928
5549 2222 1883 1910
5550 2199 1895 1945
5551 2191 1929 1987
5552 2178 1963 2032
5553 2168 2015 2091
5554 2173 2093 2173
5555 2179 2174 2237
5556 2190 2253 2309
5557 2197 2321 2371
5558 2203 2372 2418
5559 2195 2387 2448
5560 2200 2381 2433
5561 2220 2372 2395
5562 2249 2346 2346
5563 2232 2272 2292
5564 2233 2206 2216
5565 2236 2139 2147
5566 2246 2065 2064
5567 2246 1990 1988
5568 2238 1933 1941
5569 2230 1897 1920
5570 2204 1902 1943
5571 2203 1927 1974
5572 2185 1951 2012
5573 2194 2029 2075
5574 2187 2103 2168
5575 2170 2168 2239
5576 2169 2231 2312
5577 2184 2303 2369
5578 2189 2344 2401
5579 2197 2381 2429
5580 2219 2388 2413
5581 2221 2376 2400
5582 2240 2354 2356
5583 2247 2279 2283
5584 2257 2195 2180
5585 2260 2112 2100
5586 2242 2031 2031
5587 2230 1969 1984
5588 2236 1916 1929
5589 2233 1885 1905
5590 2206 1886 1930
5591 2211 1919 1954
5592 2183 1941 2005
5593 2186 1994 2058
5594 2190 2063 2124
5595 2204 2144 2199
5596 2196 2219 2280
5597 2194 2281 2341
5598 2194 2336 2398
5599 2193 2383 2443
5600 2204 2392 2431
5601 2217 2369 2386
5602 2235 2335 2345
5603 2238 2247 2258
5604 2240 2169 2172
5605 2238 2095 2108
5606 2257 2028 2022
5607 2259 1982 1972
5608 2252 1921 1922
5609 2246 1883 1887
5610 2219 1876 1910
5611 2218 1892 1929
5612 2190 1919 1974
5613 2178 1979 2056
5614 2171 2052 2131
5615 2181 2144 2218
5616 2171 2210 2288
5617 2185 2261 2327
5618 2185 2329 2392
5619 2171 2396 2462
5620 2214 2399 2431
5621 2218 2375 2403
5622 2222 2332 2347
5623 2235 2248 2261
5624 2237 2163 2176
5625 2225 2077 2097
5626 2221 1989 2016
5627 2234 1936 1958
5628 2224 1893 1915
5629 2224 1856 1882
5630 2206 1844 1885
5631 2220 1872 1908
5632 2196 1895 1946
5633 2183 1959 2019
5634 2173 2034 2116
5635 2188 2133 2197
5636 2191 2206 2260
5637 2184 2259 2325
5638 2169 2321 2397
5639 2173 2372 2450
5640 2187 2377 2437
5641 2197 2350 2392
5642 2214 2306 2339
5643 2234 2249 2262
5644 2242 2173 2175
5645 2251 2101 2100
5646 2244 2008 2015
5647 2228 1943 1964
5648 2235 1895 1903
5649 2245 1870 1870
5650 2237 1864 1881
5651 2238 1877 1895
5652 2212 1895 1936
5653 2199 1961 2010
5654 2193 2035 2089
5655 2201 2119 2170
5656 2189 2196 2254
5657 2201 2252 2300
5658 2216 2312 2354
5659 2203 2356 2396
5660 2202 2354 2398
5661 2196 2342 2387
5662 2215 2316 2347
5663 2236 2245 2259
5664 2251 2165 2161
5665 2250 2084 2082
5666 2236 2002 2018
5667 2237 1941 1957
5668 2230 1881 1895
5669 2228 1849 1868
5670 2217 1862 1893
5671 2209 1871 1913
5672 2190 1901 1961
5673 2174 1964 2033
5674 2167 2021 2105
5675 2174 2114 2195
5676 2170 2207 2287
5677 2174 2270 2346
5678 2186 2329 2392
5679 2185 2357 2413
5680 2216 2367 2402
5681 2223 2360 2382
5682 2254 2332 2330
5683 2259 2267 2264
5684 2260 2198 2186
5685 2264 2114 2099
5686 2269 2036 2021
5687 2262 1975 1967
5688 2248 1924 1924
5689 2252 1901 1895
5690 2239 1902 1909
5691 2232 1914 1930
5692 2205 1926 1973
5693 2186 1992 2054
5694 2178 2068 2142
5695 2180 2158 2227
5696 2197 2242 2297
5697 2207 2292 2337
5698 2217 2342 2379
5699 2200 2380 2432
5700 2216 2388 2420
5701 2222 2361 2388
5702 2246 2323 2334
5703 2255 2268 2259
5704 2255 2213 2207
5705 2251 2130 2122
5706 2255 2052 2043
5707 2270 1992 1968
5708 2255 1925 1921
5709 2260 1898 1888
5710 2249 1910 1909
5711 2246 1939 1944
5712 2225 1961 1987
5713 2213 2028 2065
5714 2199 2110 2165
5715 2196 2201 2248
5716 2196 2270 2325
5717 2207 2322 2365
5718 2219 2375 2412
5719 2212 2416 2456
5720 2230 2413 2431
5721 2238 2399 2411
5722 2255 2373 2364
5723 2263 2317 2305
5724 2286 2246 2209
5725 2280 2151 2117
5726 2281 2064 2029
5727 2282 1997 1968
5728 2273 1957 1934
5729 2277 1915 1888
5730 2270 1906 1886
5731 2265 1902 1892
5732 2220 1928 1960
5733 2192 1987 2046
5734 2203 2068 2122
5735 2204 2164 2209
5736 2197 2231 2285
5737 2198 2292 2338
5738 2201 2332 2386
5739 2197 2373 2418
5740 2221 2393 2416
5741 2231 2392 2405
5742 2256 2364 2357
5743 2267 2297 2277
5744 2271 2210 2180
5745 2259 2116 2105
5746 2251 2044 2038
5747 2259 1981 1969
5748 2246 1917 1921
5749 2242 1879 1888
5750 2219 1864 1896
5751 2218 1871 1907
5752 2197 1904 1962
5753 2190 1981 2044
5754 2189 2049 2111
5755 2193 2125 2178
5756 2175 2188 2257
5757 2177 2270 2343
5758 2192 2333 2396
5759 2188 2349 2411
5760 2201 2345 2391
5761 2212 2342 2371
5762 2236 2316 2323
5763 2250 2252 2255
5764 2252 2182 2180
5765 2233 2094 2109
5766 2234 2022 2029
5767 2244 1971 1971
5768 2239 1907 1914
5769 2242 1859 1862
5770 2227 1853 1879
5771 2231 1882 1901
5772 2209 1894 1942
5773 2193 1956 2010
5774 2190 2025 2092
5775 2189 2119 2180
5776 2187 2194 2263
5777 2178 2266 2337
5778 2192 2329 2386
5779 2182 2364 2433
5780 2193 2362 2408
5781 2212 2339 2376
5782 2238 2315 2326
5783 2256 2261 2251
5784 2265 2203 2183
5785 2262 2116 2117
5786 2244 2035 2044
5787 2245 1959 1969
5788 2233 1895 1899
5789 2251 1847 1845
5790 2211 1854 1894
5791 2196 1879 1935
5792 2158 1913 2004
5793 2147 1994 2094
5794 2150 2056 2159
5795 2168 2145 2227
5796 2156 2221 2317
5797 2134 2283 2393
5798 2158 2355 2447
5799 2157 2397 2485
5800 2188 2380 2438
5801 2197 2368 2412
5802 2238 2361 2367
5803 2275 2314 2285
5804 2297 2253 2205
5805 2312 2177 2110
5806 2333 2133 2050
5807 2367 2100 1984
5808 2380 2061 1929
5809 2416 2071 1903
5810 2440 2115 1921
5811 2461 2178 1964
5812 2469 2247 2022
5813 2490 2361 2113
5814 2502 2448 2203
5815 2552 2583 2276
5816 2625 2701 2330
5817 2664 2827 2416
5818 2705 2939 2485
5819 2737 3050 2556
5820 2806 3075 2514
5821 2844 3060 2461
5822 2884 3035 2389
5823 2918 2973 2305
5824 2922 2902 2226
5825 2913 2796 2133
5826 2876 2696 2057
5827 2865 2581 1951
5828 2850 2491 1880
5829 2838 2428 1829
5830 2767 2398 1879
5831 2686 2385 1942
5832 2609 2385 2019
5833 2547 2395 2096
5834 2509 2401 2145
5835 2485 2428 2194
5836 2465 2446 2236
5837 2416 2464 2300
5838 2390 2487 2349
5839 2332 2484 2404
5840 2314 2466 2397
5841 2292 2432 2393
5842 2296 2396 2346
5843 2299 2348 2300
5844 2289 2283 2237
5845 2292 2185 2141
5846 2303 2111 2054
5847 2308 2051 1983
5848 2294 1973 1925
5849 2285 1914 1875
5850 2260 1916 1902
5851 2268 1924 1909
5852 2256 1963 1959
5853 2244 2027 2035
5854 2237 2064 2083
5855 2210 2131 2177
5856 2207 2194 2236
5857 2228 2281 2307
5858 2238 2340 2351
5859 2224 2369 2388
5860 2238 2377 2382
5861 2243 2352 2357
5862 2260 2319 2302
5863 2278 2263 2229
5864 2280 2197 2156
5865 2292 2104 2055
5866 2292 2043 1996
5867 2299 1992 1939
5868 2272 1918 1890
5869 2261 1858 1846
5870 2230 1841 1868
5871 2232 1865 1885
5872 2213 1900 1935
5873 2205 1955 2007
5874 2194 2005 2065
5875 2190 2090 2152
5876 2200 2158 2213
5877 2204 2216 2266
5878 2228 2288 2315
5879 2220 2333 2364
5880 2230 2340 2357
5881 2239 2336 2343
5882 2256 2310 2301
5883 2278 2250 2216
5884 2262 2189 2169
5885 2263 2108 2093
5886 2249 2032 2018
5887 2247 1951 1949
5888 2250 1894 1891
5889 2252 1850 1845
5890 2242 1836 1846
5891 2246 1851 1856
5892 2225 1889 1913
5893 2205 1926 1969
5894 2205 1993 2044
5895 2199 2101 2150
5896 2210 2174 2219
5897 2204 2247 2293
5898 2218 2294 2331
5899 2211 2322 2365
5900 2222 2333 2362
5901 2234 2324 2335
5902 2264 2304 2282
5903 2282 2240 2203
5904 2276 2174 2137
5905 2259 2085 2072
5906 2251 2027 2018
5907 2267 1960 1941
5908 2259 1906 1894
5909 2263 1873 1856
5910 2257 1866 1854
5911 2263 1878 1859
5912 2242 1886 1900
5913 2228 1951 1976
5914 2232 2026 2052
5915 2224 2114 2139
5916 2219 2185 2212
5917 2217 2249 2275
5918 2231 2298 2310
5919 2217 2341 2374
5920 2233 2341 2354
5921 2241 2345 2343
5922 2272 2326 2304
5923 2288 2264 2222
5924 2278 2190 2157
5925 2271 2105 2082
5926 2270 2039 2009
5927 2288 1980 1935
5928 2279 1928 1898
5929 2281 1889 1851
5930 2261 1869 1857
5931 2254 1872 1871
5932 2225 1899 1920
5933 2220 1954 1979
5934 2228 2017 2043
5935 2221 2100 2134
5936 2234 2185 2208
5937 2223 2259 2282
5938 2225 2318 2342
5939 2229 2365 2384
5940 2257 2367 2355
5941 2264 2350 2332
5942 2294 2338 2289
5943 2309 2272 2213
5944 2304 2212 2148
5945 2308 2120 2061
5946 2289 2042 2004
5947 2307 1986 1926
5948 2299 1918 1867
5949 2292 1878 1835
5950 2262 1877 1867
5951 2260 1885 1875
5952 2248 1914 1918
5953 2239 1974 1984
5954 2241 2041 2050
5955 2246 2140 2139
5956 2263 2221 2208
5957 2264 2307 2290
5958 2270 2362 2351
5959 2266 2387 2379
5960 2281 2383 2342
5961 2288 2367 2321
5962 2304 2338 2276
5963 2324 2281 2202
5964 2315 2219 2146
5965 2321 2148 2066
5966 2317 2074 2005
5967 2317 2003 1931
5968 2303 1941 1886
5969 2316 1908 1842
5970 2313 1894 1827
5971 2314 1903 1837
5972 2302 1925 1877
5973 2282 1984 1957
5974 2287 2052 2016
5975 2290 2148 2110
5976 2303 2226 2181
5977 2306 2301 2249
5978 2318 2352 2283
5979 2328 2395 2324
5980 2333 2413 2329
5981 2331 2397 2314
5982 2348 2376 2279
5983 2349 2323 2229
5984 2345 2257 2153
5985 2371 2183 2054
5986 2369 2112 1985
5987 2384 2044 1908
5988 2355 1975 1871
5989 2344 1931 1832
5990 2336 1928 1838
5991 2343 1942 1843
5992 2324 1961 1887
5993 2312 2008 1944
5994 2323 2084 2019
5995 2324 2196 2122
5996 2339 2271 2180
5997 2337 2335 2249
5998 2350 2383 2284
5999 2352 2432 2331
6000 2365 2447 2332
6001 2360 2428 2324
6002 2382 2405 2269
6003 2405 2350 2183
6004 2423 2287 2109
6005 2420 2209 2027
6006 2401 2155 1995
6007 2411 2078 1911
6008 2403 2013 1852
6009 2406 1974 1818
6010 2406 1964 1804
6011 2390 1966 1833
6012 2367 2007 1894
6013 2359 2065 1952
6014 2377 2118 1985
6015 2380 2197 2070
6016 2390 2274 2136
6017 2375 2358 2236
6018 2389 2433 2293
6019 2392 2477 2345
6020 2387 2488 2348
6021 2401 2472 2320
6022 2431 2447 2258
6023 2442 2399 2195
6024 2437 2335 2131
6025 2453 2248 2035
6026 2455 2168 1958
6027 2456 2105 1894
6028 2448 2058 1846
6029 2469 2028 1800
6030 2442 2007 1812
6031 2433 2009 1821
6032 2408 2025 1864
6033 2385 2076 1933
6034 2396 2146 2000
6035 2388 2234 2085
6036 2405 2302 2139
6037 2404 2366 2206
6038 2428 2451 2263
6039 2408 2486 2323
6040 2427 2493 2314
6041 2427 2488 2307
6042 2453 2493 2286
6043 2463 2450 2229
6044 2454 2375 2155
6045 2463 2272 2044
6046 2454 2208 1992
6047 2464 2142 1922
6048 2454 2077 1872
6049 2469 2034 1807
6050 2456 2021 1812
6051 2441 2021 1826
6052 2419 2048 1874
6053 2389 2076 1935
6054 2397 2137 1987
6055 2395 2230 2082
6056 2408 2317 2141
6057 2397 2393 2242
