1 2196 2045 2096
2 2196 1983 2034
3 2206 1944 1988
4 2184 1935 1995
5 2176 1947 2021
6 2155 1971 2068
7 2141 2028 2136
8 2153 2090 2186
9 2150 2176 2279
10 2164 2252 2339
11 2161 2332 2417
12 2173 2400 2476
13 2173 2455 2536
14 2187 2456 2515
15 2189 2450 2502
16 2214 2443 2474
17 2245 2401 2403
18 2241 2324 2327
19 2249 2222 2225
20 2231 2135 2155
21 2226 2061 2087
22 2204 1992 2023
23 2209 1946 1989
24 2192 1934 2000
25 2180 1952 2022
26 2164 1978 2065
27 2154 2029 2121
28 2170 2090 2171
29 2174 2192 2272
30 2176 2273 2351
31 2168 2338 2410
32 2179 2404 2477
33 2166 2455 2535
34 2177 2483 2545
35 2199 2478 2526
36 2227 2440 2458
37 2251 2391 2387
38 2238 2309 2312
39 2236 2212 2231
40 2206 2132 2175
41 2214 2063 2097
42 2205 1993 2032
43 2217 1942 1974
44 2208 1932 1978
45 2207 1950 1992
46 2186 1979 2046
47 2168 2046 2130
48 2180 2120 2198
49 2176 2200 2271
50 2193 2267 2322
51 2186 2347 2411
52 2202 2410 2453
53 2204 2460 2511
54 2212 2486 2518
55 2213 2468 2505
56 2241 2439 2443
57 2245 2384 2390
58 2231 2327 2339
59 2249 2238 2239
60 2236 2162 2173
61 2249 2099 2098
62 2228 2035 2053
63 2230 1971 1996
64 2217 1944 1979
65 2210 1946 1989
66 2201 1984 2035
67 2182 2058 2130
68 2181 2123 2200
69 2178 2230 2305
70 2197 2282 2338
71 2198 2348 2402
72 2217 2416 2457
73 2214 2472 2504
74 2230 2491 2511
75 2242 2479 2488
76 2261 2459 2444
77 2288 2410 2370
78 2283 2351 2316
79 2285 2277 2241
80 2269 2195 2177
81 2272 2109 2081
82 2256 2033 2028
83 2256 1994 1980
84 2241 1963 1972
85 2230 1963 1977
86 2214 1987 2020
87 2200 2035 2086
88 2212 2101 2145
89 2205 2201 2247
90 2225 2293 2313
91 2217 2368 2407
92 2237 2443 2457
93 2233 2488 2507
94 2256 2518 2516
95 2273 2513 2492
96 2286 2475 2436
97 2296 2422 2378
98 2305 2356 2293
99 2316 2259 2196
100 2299 2203 2150
101 2289 2128 2082
102 2286 2061 2031
103 2283 2020 1980
104 2278 2003 1974
105 2282 2027 2004
106 2260 2040 2035
107 2244 2083 2093
108 2253 2159 2159
109 2253 2271 2268
110 2270 2332 2315
111 2272 2399 2374
112 2294 2471 2428
113 2297 2532 2488
114 2312 2560 2501
115 2325 2549 2475
116 2347 2512 2420
117 2356 2467 2356
118 2354 2407 2303
119 2363 2322 2211
120 2359 2249 2141
121 2353 2190 2080
122 2348 2130 2039
123 2352 2075 1977
124 2346 2043 1950
125 2332 2055 1965
126 2300 2068 2019
127 2282 2122 2095
128 2303 2210 2163
129 2299 2319 2271
130 2320 2388 2321
131 2302 2455 2403
132 2321 2507 2437
133 2314 2554 2494
134 2321 2574 2508
135 2336 2579 2496
136 2356 2565 2454
137 2379 2499 2364
138 2380 2424 2294
139 2382 2327 2193
140 2370 2264 2141
141 2384 2186 2048
142 2372 2128 2001
143 2368 2078 1957
144 2345 2056 1960
145 2332 2071 1988
146 2312 2103 2038
147 2304 2153 2102
148 2309 2220 2164
149 2301 2313 2262
150 2315 2391 2323
151 2320 2477 2408
152 2331 2549 2472
153 2330 2585 2501
154 2344 2595 2494
155 2342 2584 2484
156 2362 2569 2451
157 2383 2520 2386
158 2376 2454 2330
159 2380 2373 2240
160 2359 2282 2168
161 2352 2205 2091
162 2338 2148 2063
163 2335 2115 2024
164 2326 2075 2002
165 2319 2071 1999
166 2300 2101 2054
167 2278 2161 2134
168 2283 2231 2201
169 2275 2307 2292
170 2288 2368 2336
171 2273 2441 2423
172 2284 2506 2474
173 2271 2561 2538
174 2283 2589 2549
175 2298 2587 2542
176 2310 2549 2492
177 2319 2494 2422
178 2310 2411 2353
179 2313 2315 2251
180 2301 2238 2186
181 2288 2163 2120
182 2262 2090 2076
183 2256 2037 2023
184 2248 2010 2009
185 2241 2012 2025
186 2214 2034 2077
187 2189 2075 2142
188 2201 2153 2209
189 2197 2248 2299
190 2219 2323 2355
191 2205 2402 2446
192 2215 2467 2504
193 2199 2506 2559
194 2210 2532 2564
195 2225 2520 2540
196 2236 2493 2501
197 2242 2455 2460
198 2236 2378 2395
199 2230 2281 2297
200 2223 2214 2241
201 2221 2146 2168
202 2214 2075 2105
203 2217 2018 2048
204 2211 1996 2035
205 2199 2011 2068
206 2165 2026 2113
207 2139 2088 2196
208 2151 2135 2242
209 2133 2203 2325
210 2153 2269 2363
211 2156 2344 2435
212 2167 2402 2490
213 2148 2461 2558
214 2165 2501 2583
215 2174 2485 2558
216 2189 2458 2508
217 2205 2423 2466
218 2197 2360 2404
219 2215 2261 2294
220 2202 2178 2223
221 2199 2093 2139
222 2186 2028 2093
223 2183 1983 2047
224 2167 1954 2033
225 2167 1965 2046
226 2143 1986 2096
227 2123 2030 2160
228 2123 2104 2236
229 2112 2190 2329
230 2132 2262 2383
231 2131 2324 2441
232 2145 2391 2496
233 2144 2452 2555
234 2159 2482 2574
235 2174 2479 2554
236 2182 2444 2508
237 2195 2404 2450
238 2183 2336 2398
239 2186 2249 2309
240 2175 2171 2253
241 2176 2089 2157
242 2182 2021 2088
243 2183 1965 2036
244 2160 1946 2038
245 2139 1945 2060
246 2128 1964 2087
247 2116 2011 2155
248 2134 2095 2216
249 2120 2185 2319
250 2138 2271 2378
251 2128 2342 2464
252 2136 2411 2526
253 2127 2463 2588
254 2143 2491 2586
255 2164 2470 2552
256 2181 2454 2517
257 2200 2426 2463
258 2194 2359 2411
259 2198 2269 2323
260 2177 2173 2240
261 2180 2089 2152
262 2174 2018 2090
263 2183 1963 2027
264 2172 1938 2015
265 2157 1956 2049
266 2138 1988 2106
267 2112 2019 2162
268 2120 2087 2221
269 2107 2174 2315
270 2125 2257 2380
271 2128 2336 2454
272 2140 2410 2515
273 2138 2471 2583
274 2143 2519 2620
275 2155 2505 2593
276 2176 2460 2527
277 2193 2408 2455
278 2186 2334 2394
279 2204 2266 2307
280 2190 2186 2244
281 2188 2095 2158
282 2180 2023 2093
283 2176 1982 2047
284 2171 1978 2060
285 2146 1963 2062
286 2140 1962 2077
287 2125 2004 2137
288 2137 2083 2205
289 2121 2187 2310
290 2140 2269 2385
291 2131 2342 2457
292 2141 2402 2504
293 2146 2459 2561
294 2159 2500 2588
295 2182 2494 2563
296 2196 2464 2519
297 2222 2432 2453
298 2194 2359 2414
299 2189 2271 2334
300 2180 2194 2263
301 2185 2123 2191
302 2172 2046 2125
303 2173 1977 2051
304 2158 1935 2029
305 2148 1942 2049
306 2123 1969 2094
307 2109 2022 2162
308 2124 2106 2231
309 2126 2195 2321
310 2138 2279 2388
311 2129 2349 2468
312 2142 2422 2524
313 2141 2474 2588
314 2155 2493 2583
315 2157 2485 2570
316 2174 2469 2543
317 2190 2437 2493
318 2189 2377 2436
319 2213 2298 2334
320 2206 2227 2272
321 2210 2136 2172
322 2199 2067 2117
323 2191 2013 2072
324 2174 1977 2048
325 2155 1975 2066
326 2149 1994 2095
327 2138 2040 2154
328 2129 2103 2229
329 2111 2186 2330
330 2124 2271 2391
331 2127 2336 2455
332 2143 2398 2502
333 2140 2449 2551
334 2144 2485 2583
335 2170 2500 2577
336 2187 2477 2544
337 2194 2435 2488
338 2187 2366 2426
339 2186 2269 2329
340 2170 2180 2266
341 2177 2123 2204
342 2173 2069 2145
343 2175 2006 2080
344 2167 1969 2053
345 2150 1970 2070
346 2133 1989 2097
347 2120 2016 2148
348 2126 2089 2217
349 2114 2181 2320
350 2135 2280 2395
351 2137 2371 2485
352 2150 2439 2540
353 2146 2482 2580
354 2149 2504 2604
355 2159 2492 2585
356 2173 2467 2532
357 2204 2431 2472
358 2199 2360 2410
359 2216 2279 2310
360 2194 2204 2258
361 2186 2131 2200
362 2170 2069 2151
363 2169 2001 2085
364 2154 1968 2069
365 2141 1970 2081
366 2138 1988 2103
367 2119 2020 2155
368 2130 2082 2204
369 2118 2174 2312
370 2134 2250 2363
371 2128 2320 2446
372 2123 2403 2527
373 2130 2467 2588
374 2144 2498 2599
375 2149 2485 2583
376 2162 2465 2547
377 2186 2433 2493
378 2189 2366 2424
379 2198 2291 2338
380 2186 2212 2274
381 2188 2126 2189
382 2185 2055 2119
383 2182 1991 2061
384 2164 1958 2044
385 2149 1959 2059
386 2138 1982 2098
387 2119 2026 2152
388 2128 2093 2211
389 2122 2177 2311
390 2143 2276 2380
391 2127 2357 2476
392 2127 2431 2550
393 2128 2491 2607
394 2140 2502 2606
395 2169 2501 2579
396 2191 2465 2523
397 2217 2424 2454
398 2196 2363 2414
399 2185 2270 2330
400 2164 2184 2266
401 2173 2100 2178
402 2167 2033 2113
403 2168 1990 2071
404 2162 1954 2039
405 2143 1943 2055
406 2148 1972 2075
407 2128 2004 2133
408 2116 2071 2213
409 2104 2159 2311
410 2121 2251 2379
411 2124 2332 2452
412 2131 2387 2510
413 2123 2440 2563
414 2134 2477 2581
415 2164 2478 2562
416 2172 2459 2535
417 2200 2451 2495
418 2205 2366 2405
419 2215 2267 2302
420 2196 2176 2233
421 2182 2099 2169
422 2155 2038 2127
423 2170 1989 2062
424 2169 1951 2030
425 2148 1955 2053
426 2140 1981 2097
427 2116 2018 2158
428 2121 2090 2223
429 2103 2176 2319
430 2123 2252 2378
431 2127 2321 2450
432 2128 2384 2501
433 2125 2443 2568
434 2136 2489 2600
435 2150 2496 2593
436 2174 2468 2543
437 2192 2430 2482
438 2191 2355 2416
439 2201 2289 2335
440 2178 2212 2285
441 2184 2120 2191
442 2176 2053 2128
443 2168 2003 2077
444 2174 1963 2043
445 2162 1951 2042
446 2153 1970 2068
447 2130 2002 2128
448 2131 2088 2206
449 2117 2165 2303
450 2125 2244 2367
451 2128 2325 2451
452 2130 2396 2511
453 2132 2449 2561
454 2141 2474 2579
455 2153 2467 2554
456 2170 2459 2532
457 2187 2438 2499
458 2177 2353 2429
459 2179 2268 2336
460 2169 2192 2268
461 2179 2119 2190
462 2169 2048 2128
463 2157 1978 2069
464 2149 1934 2032
465 2137 1932 2049
466 2141 1967 2084
467 2121 2000 2131
468 2122 2074 2208
469 2110 2178 2318
470 2117 2259 2390
471 2121 2338 2468
472 2122 2401 2522
473 2129 2443 2564
474 2135 2486 2598
475 2162 2489 2574
476 2174 2464 2534
477 2186 2432 2490
478 2184 2364 2432
479 2196 2275 2326
480 2183 2184 2258
481 2177 2109 2180
482 2179 2047 2122
483 2183 1982 2050
484 2170 1957 2038
485 2146 1960 2062
486 2134 1969 2089
487 2112 2018 2158
488 2125 2097 2231
489 2119 2174 2307
490 2138 2243 2360
491 2140 2332 2448
492 2140 2411 2522
493 2145 2465 2569
494 2148 2492 2584
495 2168 2492 2571
496 2170 2479 2551
497 2199 2442 2491
498 2209 2364 2404
499 2221 2302 2333
500 2217 2228 2261
501 2201 2121 2175
502 2164 2043 2130
503 2163 1990 2080
504 2160 1951 2037
505 2151 1965 2067
506 2143 1986 2099
507 2131 2009 2133
508 2132 2081 2204
509 2125 2166 2294
510 2135 2268 2378
511 2136 2353 2468
512 2133 2406 2526
513 2133 2467 2577
514 2140 2500 2611
515 2157 2491 2587
516 2166 2479 2561
517 2191 2449 2507
518 2195 2379 2432
519 2190 2291 2347
520 2179 2203 2274
521 2183 2123 2185
522 2177 2050 2124
523 2173 1988 2067
524 2171 1955 2035
525 2154 1956 2054
526 2145 1980 2087
527 2127 2018 2146
528 2123 2107 2237
529 2118 2173 2308
530 2127 2253 2378
531 2121 2332 2459
532 2129 2399 2522
533 2130 2459 2579
534 2142 2496 2601
535 2164 2497 2577
536 2175 2463 2541
537 2202 2455 2498
538 2214 2394 2429
539 2226 2315 2339
540 2214 2239 2269
541 2207 2159 2206
542 2192 2090 2154
543 2187 2022 2085
544 2181 1974 2049
545 2160 1976 2065
546 2145 2001 2109
547 2121 2030 2166
548 2121 2100 2237
549 2120 2189 2321
550 2136 2277 2387
551 2135 2346 2460
552 2146 2413 2517
553 2144 2482 2586
554 2146 2536 2634
555 2160 2537 2622
556 2166 2519 2596
557 2205 2501 2547
558 2205 2420 2462
559 2213 2335 2374
560 2198 2246 2306
561 2203 2154 2206
562 2201 2090 2139
563 2194 2029 2091
564 2195 2002 2067
565 2180 2008 2084
566 2175 2031 2114
567 2145 2050 2160
568 2149 2138 2236
569 2150 2221 2323
570 2160 2298 2385
571 2147 2383 2478
572 2151 2462 2561
573 2167 2520 2605
574 2166 2562 2643
575 2177 2561 2628
576 2195 2530 2580
577 2230 2505 2528
578 2231 2439 2462
579 2227 2347 2374
580 2214 2267 2304
581 2225 2200 2233
582 2226 2139 2158
583 2225 2069 2098
584 2219 2020 2054
585 2202 2020 2074
586 2203 2036 2091
587 2184 2059 2134
588 2179 2142 2219
589 2172 2220 2303
590 2187 2296 2354
591 2179 2364 2438
592 2176 2423 2497
593 2179 2480 2553
594 2179 2523 2590
595 2200 2542 2591
596 2200 2522 2566
597 2228 2471 2501
598 2227 2400 2428
599 2226 2331 2354
600 2216 2241 2278
601 2202 2153 2196
602 2194 2080 2142
603 2191 2028 2085
604 2195 1986 2043
605 2180 1979 2054
606 2173 1992 2080
607 2147 2018 2127
608 2136 2083 2202
609 2115 2147 2281
610 2134 2242 2361
611 2124 2329 2445
612 2135 2384 2508
613 2142 2442 2558
614 2141 2488 2586
615 2158 2492 2579
616 2167 2472 2554
617 2197 2459 2507
618 2205 2388 2435
619 2198 2301 2352
620 2180 2201 2269
621 2190 2114 2182
622 2183 2053 2128
623 2177 1988 2062
624 2171 1950 2025
625 2152 1946 2044
626 2147 1960 2065
627 2123 1983 2117
628 2116 2062 2196
629 2107 2143 2293
630 2120 2241 2374
631 2127 2327 2447
632 2135 2388 2504
633 2141 2447 2561
634 2140 2477 2587
635 2157 2466 2555
636 2164 2451 2535
637 2195 2428 2483
638 2191 2362 2420
639 2192 2295 2352
640 2183 2202 2278
641 2182 2121 2184
642 2161 2035 2126
643 2168 1985 2068
644 2167 1951 2041
645 2148 1953 2059
646 2148 1962 2066
647 2126 1988 2121
648 2130 2066 2191
649 2132 2161 2287
650 2128 2248 2368
651 2119 2320 2450
652 2115 2385 2514
653 2113 2451 2586
654 2099 2489 2632
655 2108 2481 2622
656 2117 2471 2598
657 2154 2454 2557
658 2172 2399 2481
659 2172 2326 2406
660 2171 2242 2321
661 2179 2193 2259
662 2204 2138 2183
663 2217 2068 2100
664 2241 2021 2037
665 2246 2031 2036
666 2262 2065 2063
667 2262 2126 2119
668 2283 2219 2194
669 2300 2334 2293
670 2349 2479 2385
671 2378 2608 2489
672 2404 2720 2568
673 2440 2833 2648
674 2457 2911 2704
675 2520 2956 2684
676 2572 2966 2640
677 2640 2977 2594
678 2692 2977 2534
679 2715 2984 2513
680 2750 2912 2413
681 2788 2855 2319
682 2806 2808 2254
683 2797 2731 2184
684 2789 2679 2136
685 2769 2639 2112
686 2748 2621 2125
687 2700 2611 2159
688 2686 2646 2216
689 2660 2695 2293
690 2629 2759 2387
691 2556 2810 2513
692 2510 2846 2595
693 2466 2852 2643
694 2426 2837 2665
695 2416 2776 2609
696 2382 2722 2583
697 2368 2662 2541
698 2335 2549 2467
699 2300 2441 2383
700 2259 2323 2316
701 2224 2222 2253
702 2212 2148 2179
703 2199 2063 2114
704 2198 2009 2056
705 2180 2013 2087
706 2177 2031 2110
707 2151 2056 2160
708 2154 2134 2233
709 2151 2219 2319
710 2160 2302 2390
711 2158 2364 2459
712 2166 2407 2489
713 2172 2467 2550
714 2162 2523 2599
715 2185 2531 2589
716 2182 2520 2580
717 2216 2479 2509
718 2211 2398 2442
719 2203 2317 2354
720 2208 2225 2275
721 2192 2136 2201
722 2187 2067 2127
723 2184 1991 2059
724 2195 1950 2005
725 2169 1955 2033
726 2164 1981 2069
727 2134 2004 2113
728 2134 2059 2179
729 2135 2112 2237
730 2139 2208 2320
731 2147 2304 2413
732 2154 2381 2473
733 2157 2433 2526
734 2150 2466 2573
735 2176 2493 2564
736 2184 2467 2535
737 2212 2444 2477
738 2227 2364 2390
739 2229 2306 2330
740 2221 2216 2252
741 2203 2124 2168
742 2200 2060 2106
743 2187 1998 2056
744 2188 1943 2011
745 2160 1939 2022
746 2156 1951 2044
747 2130 1972 2099
748 2125 2049 2178
749 2136 2130 2245
750 2155 2225 2322
751 2163 2308 2396
752 2162 2371 2455
753 2173 2438 2514
754 2170 2464 2546
755 2194 2474 2522
756 2191 2463 2512
757 2221 2441 2470
758 2229 2373 2402
759 2219 2306 2337
760 2210 2225 2264
761 2198 2137 2184
762 2208 2055 2104
763 2203 1994 2038
764 2219 1948 1979
765 2200 1946 1995
766 2190 1964 2034
767 2160 2006 2102
768 2159 2096 2181
769 2161 2153 2247
770 2164 2230 2314
771 2179 2299 2380
772 2167 2369 2449
773 2169 2424 2506
774 2153 2472 2569
775 2178 2476 2547
776 2187 2464 2520
777 2218 2430 2465
778 2238 2376 2394
779 2241 2310 2322
780 2230 2232 2252
781 2225 2157 2179
782 2226 2069 2094
783 2214 1993 2024
784 2233 1936 1965
785 2201 1932 1988
786 2196 1961 2019
787 2167 1988 2080
788 2159 2072 2161
789 2159 2150 2253
790 2176 2253 2329
791 2190 2320 2385
792 2184 2377 2451
793 2196 2437 2495
794 2189 2483 2537
795 2201 2490 2539
796 2195 2479 2538
797 2215 2450 2481
798 2225 2371 2394
799 2233 2302 2314
800 2241 2219 2232
801 2231 2154 2163
802 2227 2076 2100
803 2214 2007 2045
804 2214 1961 1995
805 2202 1954 2008
806 2198 1966 2021
807 2178 1994 2074
808 2160 2057 2148
809 2162 2130 2219
810 2176 2229 2304
811 2182 2307 2384
812 2185 2403 2459
813 2220 2481 2513
814 2232 2517 2532
815 2261 2520 2507
816 2261 2490 2482
817 2268 2474 2456
818 2258 2420 2406
819 2248 2354 2358
820 2249 2264 2268
821 2244 2186 2197
822 2248 2115 2115
823 2245 2046 2055
824 2260 1988 1979
825 2228 1970 1992
826 2216 1989 2029
827 2209 2002 2051
828 2193 2062 2122
829 2195 2138 2200
830 2194 2237 2291
831 2201 2326 2380
832 2208 2407 2453
833 2220 2483 2517
834 2212 2528 2570
835 2228 2539 2562
836 2243 2521 2535
837 2260 2480 2469
838 2281 2429 2403
839 2284 2371 2328
840 2290 2288 2244
841 2286 2209 2166
842 2276 2128 2105
843 2262 2061 2049
844 2266 2014 2000
845 2255 2001 1999
846 2257 2019 2014
847 2231 2041 2061
848 2224 2102 2125
849 2230 2176 2206
850 2240 2295 2310
851 2256 2381 2379
852 2249 2436 2440
853 2259 2486 2481
854 2243 2530 2534
855 2264 2553 2534
856 2283 2546 2519
857 2307 2529 2473
858 2311 2460 2396
859 2320 2388 2320
860 2313 2306 2243
861 2305 2222 2165
862 2311 2144 2087
863 2305 2085 2028
864 2309 2052 1993
865 2295 2053 2014
866 2302 2086 2033
867 2288 2089 2054
868 2267 2140 2129
869 2259 2221 2219
870 2268 2321 2309
871 2284 2392 2365
872 2295 2461 2416
873 2315 2530 2475
874 2297 2578 2527
875 2311 2587 2523
876 2313 2576 2518
877 2339 2556 2469
878 2362 2501 2393
879 2363 2430 2317
880 2362 2336 2220
881 2351 2263 2151
882 2364 2195 2080
883 2351 2125 2019
884 2354 2079 1975
885 2334 2061 1978
886 2332 2083 2006
887 2307 2117 2065
888 2288 2175 2142
889 2306 2237 2189
890 2305 2329 2277
891 2315 2429 2368
892 2323 2498 2434
893 2329 2550 2474
894 2329 2591 2518
895 2347 2608 2508
896 2359 2601 2497
897 2377 2573 2447
898 2382 2522 2388
899 2366 2452 2333
900 2370 2353 2234
901 2361 2268 2153
902 2359 2206 2092
903 2345 2141 2045
904 2352 2088 1986
905 2334 2078 1999
906 2335 2089 2009
907 2323 2121 2059
908 2309 2185 2127
909 2323 2249 2175
910 2322 2342 2277
911 2316 2428 2372
912 2299 2509 2466
913 2314 2571 2505
914 2316 2605 2544
915 2333 2615 2539
916 2336 2610 2513
917 2361 2576 2464
918 2369 2511 2392
919 2355 2445 2335
920 2349 2355 2261
921 2329 2278 2190
922 2343 2211 2118
923 2325 2156 2078
924 2326 2086 2009
925 2313 2062 2000
926 2302 2076 2029
927 2280 2105 2081
928 2270 2178 2156
929 2273 2253 2238
930 2267 2349 2338
931 2266 2418 2407
932 2259 2477 2471
933 2267 2530 2522
934 2262 2578 2568
935 2279 2595 2564
936 2284 2578 2546
937 2300 2549 2498
938 2298 2485 2436
939 2288 2429 2387
940 2297 2326 2281
941 2284 2242 2203
942 2272 2168 2151
943 2251 2093 2087
944 2261 2036 2022
945 2236 2018 2034
946 2230 2026 2048
947 2207 2061 2102
948 2199 2135 2186
949 2205 2201 2255
950 2204 2287 2336
951 2192 2348 2412
952 2186 2427 2488
953 2209 2492 2536
954 2187 2527 2591
955 2193 2537 2588
956 2198 2522 2569
957 2226 2494 2517
958 2244 2438 2443
959 2238 2372 2385
960 2241 2285 2282
961 2232 2195 2212
962 2240 2114 2126
963 2227 2052 2074
964 2224 2008 2033
965 2202 2001 2050
966 2187 2002 2071
967 2156 2015 2108
968 2146 2083 2193
969 2141 2160 2270
970 2139 2254 2365
971 2148 2332 2433
972 2141 2394 2499
973 2152 2452 2541
974 2153 2501 2595
975 2166 2516 2591
976 2174 2496 2568
977 2195 2467 2514
978 2216 2401 2438
979 2206 2337 2377
980 2204 2259 2308
981 2193 2180 2238
982 2197 2115 2165
983 2181 2047 2114
984 2182 1976 2049
985 2167 1952 2040
986 2157 1965 2057
987 2141 1992 2106
988 2124 2050 2181
989 2121 2106 2243
990 2108 2196 2339
991 2121 2278 2408
992 2126 2350 2471
993 2124 2410 2532
994 2129 2465 2587
995 2141 2485 2582
996 2148 2460 2550
997 2175 2436 2506
998 2206 2387 2425
999 2193 2324 2373
1000 2195 2226 2284
1001 2187 2164 2225
1002 2197 2104 2158
1003 2182 2044 2099
1004 2185 1988 2051
1005 2168 1959 2035
1006 2167 1960 2051
1007 2141 1989 2102
1008 2137 2054 2174
1009 2131 2120 2240
1010 2125 2199 2316
1011 2146 2282 2389
1012 2132 2363 2479
1013 2140 2424 2539
1014 2132 2473 2590
1015 2142 2493 2590
1016 2154 2486 2581
1017 2171 2451 2521
1018 2195 2402 2449
1019 2194 2332 2384
1020 2196 2236 2290
1021 2171 2155 2229
1022 2186 2090 2158
1023 2161 2017 2105
1024 2174 1966 2041
1025 2164 1934 2027
1026 2155 1948 2043
1027 2126 1983 2119
1028 2109 2058 2204
1029 2121 2136 2270
1030 2129 2217 2337
1031 2137 2283 2397
1032 2133 2359 2474
1033 2153 2433 2529
1034 2131 2482 2601
1035 2151 2499 2594
1036 2161 2477 2563
1037 2189 2453 2512
1038 2194 2400 2451
1039 2186 2339 2395
1040 2195 2252 2306
1041 2184 2181 2253
1042 2182 2106 2177
1043 2163 2028 2115
1044 2170 1965 2040
1045 2163 1935 2022
1046 2162 1959 2047
1047 2131 1978 2100
1048 2117 2027 2167
1049 2130 2090 2216
1050 2134 2183 2310
1051 2131 2266 2387
1052 2136 2342 2452
1053 2158 2412 2505
1054 2153 2486 2587
1055 2152 2509 2600
1056 2168 2488 2566
1057 2187 2454 2513
1058 2211 2406 2451
1059 2209 2346 2386
1060 2212 2247 2288
1061 2186 2167 2230
1062 2198 2093 2144
1063 2179 2026 2089
1064 2192 1973 2031
1065 2174 1946 2019
1066 2166 1961 2046
1067 2144 1989 2102
1068 2135 2045 2164
1069 2154 2119 2215
1070 2157 2225 2323
1071 2163 2292 2388
1072 2151 2362 2462
1073 2163 2446 2532
1074 2158 2518 2608
1075 2172 2528 2600
1076 2179 2483 2553
1077 2205 2443 2490
1078 2212 2378 2411
1079 2219 2328 2359
1080 2227 2248 2273
1081 2200 2180 2232
1082 2194 2121 2171
1083 2175 2056 2122
1084 2196 2006 2053
1085 2191 1983 2045
1086 2188 1983 2052
1087 2145 1996 2102
1088 2112 2047 2187
1089 2125 2094 2226
1090 2125 2177 2307
1091 2135 2251 2364
1092 2140 2338 2452
1093 2149 2408 2504
1094 2161 2468 2557
1095 2173 2495 2568
1096 2176 2495 2567
1097 2195 2475 2531
1098 2214 2424 2452
1099 2211 2359 2395
1100 2217 2276 2306
1101 2203 2180 2223
1102 2203 2090 2139
1103 2183 2022 2085
1104 2187 1978 2038
1105 2178 1949 2022
1106 2183 1966 2042
1107 2153 1991 2097
1108 2140 2037 2154
1109 2148 2115 2225
1110 2141 2220 2334
1111 2146 2302 2408
1112 2143 2369 2473
1113 2151 2424 2521
1114 2147 2479 2580
1115 2171 2507 2586
1116 2188 2488 2546
1117 2212 2471 2513
1118 2232 2443 2459
1119 2223 2368 2392
1120 2222 2262 2288
1121 2206 2184 2222
1122 2211 2102 2143
1123 2197 2030 2085
1124 2205 1990 2038
1125 2193 1968 2020
1126 2170 1959 2040
1127 2155 1978 2074
1128 2145 2023 2129
1129 2146 2088 2198
1130 2141 2179 2292
1131 2163 2274 2360
1132 2153 2362 2461
1133 2168 2442 2527
1134 2164 2488 2578
1135 2170 2502 2574
1136 2185 2518 2581
1137 2196 2487 2535
1138 2218 2420 2449
1139 2217 2354 2377
1140 2230 2266 2280
1141 2203 2179 2222
1142 2200 2083 2127
1143 2187 2018 2078
1144 2197 1964 2019
1145 2183 1938 2005
1146 2174 1953 2030
1147 2163 2001 2091
1148 2141 2039 2156
1149 2142 2091 2206
1150 2143 2199 2308
1151 2167 2279 2367
1152 2164 2351 2443
1153 2172 2410 2492
1154 2165 2458 2550
1155 2177 2492 2565
1156 2179 2500 2562
1157 2194 2474 2520
1158 2224 2432 2461
1159 2218 2355 2390
1160 2234 2254 2272
1161 2209 2164 2203
1162 2211 2082 2120
1163 2204 2024 2072
1164 2203 1983 2032
1165 2192 1966 2030
1166 2181 1967 2038
1167 2167 1996 2077
1168 2145 2030 2141
1169 2152 2092 2199
1170 2150 2181 2280
1171 2167 2261 2343
1172 2163 2342 2426
1173 2160 2414 2507
1174 2141 2464 2568
1175 2156 2478 2566
1176 2179 2480 2549
1177 2211 2468 2502
1178 2224 2415 2431
1179 2212 2336 2371
1180 2214 2243 2283
1181 2201 2168 2215
1182 2210 2092 2137
1183 2189 2030 2095
1184 2189 1987 2041
1185 2173 1956 2032
1186 2168 1970 2056
1187 2150 2005 2108
1188 2129 2039 2171
1189 2139 2095 2215
1190 2140 2186 2303
1191 2156 2269 2364
1192 2154 2355 2452
1193 2166 2434 2516
1194 2162 2482 2569
1195 2164 2495 2571
1196 2181 2484 2551
1197 2197 2456 2505
1198 2216 2418 2450
1199 2205 2365 2401
1200 2226 2274 2303
1201 2208 2176 2219
1202 2209 2086 2124
1203 2204 2008 2059
1204 2209 1964 2008
1205 2195 1947 2005
1206 2177 1947 2029
1207 2158 1964 2067
1208 2145 2009 2131
1209 2146 2080 2189
1210 2127 2164 2290
1211 2152 2262 2359
1212 2141 2342 2445
1213 2158 2411 2505
1214 2154 2456 2552
1215 2165 2480 2558
1216 2182 2466 2538
1217 2204 2458 2502
1218 2219 2431 2456
1219 2217 2372 2398
1220 2220 2276 2307
1221 2193 2192 2250
1222 2208 2098 2141
1223 2195 2030 2087
1224 2199 1981 2038
1225 2183 1951 2022
1226 2174 1951 2031
1227 2157 1972 2069
1228 2129 2010 2142
1229 2136 2094 2217
1230 2138 2179 2297
1231 2155 2260 2355
1232 2157 2340 2433
1233 2159 2402 2494
1234 2153 2446 2547
1235 2162 2486 2572
1236 2177 2480 2555
1237 2188 2457 2509
1238 2213 2420 2454
1239 2207 2348 2388
1240 2217 2260 2289
1241 2202 2175 2228
1242 2197 2093 2150
1243 2191 2026 2086
1244 2201 1975 2025
1245 2200 1946 2000
1246 2180 1949 2016
1247 2167 1984 2068
1248 2142 2025 2144
1249 2139 2098 2217
1250 2129 2195 2316
1251 2140 2279 2391
1252 2126 2340 2469
1253 2142 2394 2503
1254 2151 2440 2543
1255 2160 2473 2557
1256 2168 2470 2552
1257 2190 2465 2527
1258 2211 2441 2481
1259 2210 2363 2405
1260 2227 2283 2309
1261 2218 2220 2252
1262 2209 2108 2155
1263 2188 2018 2082
1264 2189 1949 2014
1265 2178 1921 1997
1266 2166 1939 2026
1267 2146 1964 2068
1268 2131 2008 2130
1269 2140 2082 2201
1270 2119 2166 2303
1271 2130 2256 2371
1272 2131 2329 2447
1273 2146 2394 2507
1274 2136 2445 2556
1275 2152 2474 2564
1276 2167 2460 2545
1277 2184 2444 2512
1278 2200 2415 2466
1279 2192 2353 2406
1280 2200 2264 2308
1281 2189 2173 2235
1282 2190 2076 2140
1283 2184 2002 2072
1284 2188 1948 2017
1285 2184 1926 1995
1286 2164 1946 2030
1287 2147 1965 2076
1288 2132 2004 2126
1289 2146 2089 2199
1290 2135 2197 2317
1291 2144 2281 2388
1292 2135 2340 2458
1293 2152 2407 2513
1294 2155 2466 2555
1295 2175 2498 2582
1296 2186 2513 2582
1297 2192 2496 2553
1298 2206 2434 2478
1299 2206 2351 2397
1300 2214 2253 2287
1301 2202 2175 2226
1302 2205 2102 2146
1303 2194 2022 2084
1304 2192 1980 2040
1305 2172 1960 2045
1306 2154 1960 2058
1307 2127 1969 2086
1308 2108 1999 2142
1309 2123 2087 2210
1310 2119 2191 2331
1311 2127 2284 2414
1312 2126 2359 2483
1313 2136 2416 2528
1314 2141 2469 2580
1315 2148 2493 2602
1316 2167 2489 2575
1317 2183 2471 2542
1318 2200 2439 2486
1319 2184 2372 2437
1320 2201 2291 2344
1321 2196 2211 2270
1322 2198 2128 2179
1323 2193 2059 2118
1324 2206 2000 2053
1325 2190 1976 2042
1326 2176 1993 2060
1327 2159 2016 2108
1328 2149 2050 2167
1329 2140 2118 2235
1330 2135 2206 2325
1331 2150 2285 2387
1332 2156 2364 2461
1333 2166 2428 2509
1334 2159 2475 2569
1335 2153 2508 2600
1336 2181 2513 2584
1337 2201 2487 2536
1338 2236 2463 2476
1339 2233 2399 2412
1340 2235 2308 2323
1341 2213 2231 2277
1342 2193 2147 2210
1343 2193 2090 2157
1344 2191 2022 2081
1345 2186 1988 2056
1346 2169 1984 2068
1347 2156 2002 2099
1348 2146 2031 2146
1349 2152 2109 2214
1350 2147 2211 2318
1351 2157 2292 2385
1352 2148 2360 2465
1353 2161 2420 2510
1354 2157 2468 2560
1355 2168 2492 2565
1356 2194 2476 2533
1357 2218 2458 2494
1358 2224 2421 2446
1359 2209 2354 2397
1360 2218 2263 2293
1361 2202 2183 2232
1362 2200 2106 2156
1363 2194 2034 2087
1364 2189 1972 2034
1365 2189 1945 2013
1366 2177 1953 2030
1367 2158 1977 2070
1368 2135 1990 2114
1369 2136 2050 2169
1370 2130 2134 2261
1371 2146 2226 2336
1372 2143 2311 2420
1373 2148 2395 2489
1374 2147 2445 2551
1375 2158 2467 2552
1376 2168 2463 2545
1377 2175 2453 2520
1378 2206 2428 2468
1379 2201 2352 2398
1380 2210 2267 2304
1381 2193 2169 2226
1382 2193 2070 2133
1383 2182 2002 2073
1384 2194 1942 1999
1385 2194 1912 1971
1386 2180 1923 1993
1387 2156 1944 2043
1388 2136 1981 2102
1389 2139 2061 2179
1390 2137 2144 2261
1391 2154 2225 2321
1392 2149 2298 2401
1393 2160 2369 2454
1394 2170 2428 2511
1395 2174 2458 2532
1396 2188 2454 2517
1397 2206 2437 2479
1398 2215 2406 2436
1399 2207 2332 2372
1400 2225 2249 2278
1401 2207 2176 2224
1402 2201 2102 2151
1403 2198 2032 2092
1404 2203 1980 2026
1405 2202 1955 2008
1406 2188 1950 2010
1407 2183 1958 2034
1408 2153 1974 2076
1409 2157 2054 2149
1410 2160 2147 2242
1411 2172 2226 2310
1412 2155 2304 2399
1413 2156 2364 2465
1414 2151 2432 2535
1415 2157 2492 2578
1416 2170 2494 2571
1417 2181 2484 2542
1418 2205 2437 2488
1419 2197 2359 2409
1420 2207 2274 2314
1421 2205 2199 2252
1422 2212 2123 2165
1423 2198 2054 2115
1424 2191 2001 2061
1425 2203 1970 2021
1426 2225 2005 2032
1427 2227 2034 2065
1428 2231 2078 2110
1429 2244 2154 2164
1430 2264 2267 2254
1431 2322 2378 2315
1432 2356 2493 2384
1433 2393 2593 2458
1434 2413 2707 2550
1435 2440 2796 2601
1436 2490 2846 2613
1437 2530 2865 2585
1438 2570 2866 2544
1439 2614 2836 2469
1440 2672 2795 2374
1441 2690 2774 2328
1442 2741 2770 2283
1443 2769 2753 2237
1444 2807 2700 2145
1445 2838 2682 2092
1446 2830 2678 2094
1447 2813 2672 2109
1448 2792 2677 2137
1449 2784 2741 2208
1450 2768 2785 2277
1451 2762 2832 2320
1452 2743 2898 2406
1453 2717 2955 2497
1454 2662 2997 2588
1455 2613 2989 2630
1456 2580 2943 2609
1457 2546 2865 2571
1458 2514 2774 2512
1459 2475 2649 2426
1460 2446 2523 2324
1461 2403 2398 2243
1462 2379 2279 2144
1463 2344 2177 2079
1464 2303 2093 2041
1465 2277 2042 2016
1466 2248 2041 2049
1467 2225 2077 2109
1468 2209 2120 2172
1469 2218 2194 2222
1470 2219 2264 2300
1471 2235 2341 2359
1472 2237 2420 2436
1473 2236 2479 2494
1474 2245 2521 2534
1475 2249 2547 2549
1476 2275 2559 2539
1477 2271 2537 2515
1478 2277 2497 2469
1479 2271 2417 2394
1480 2279 2333 2304
1481 2257 2257 2246
1482 2257 2165 2156
1483 2249 2094 2091
1484 2247 2028 2024
1485 2254 1980 1977
1486 2230 1969 1989
1487 2217 1985 2020
1488 2195 2026 2088
1489 2185 2093 2161
1490 2178 2183 2255
1491 2191 2264 2329
1492 2187 2352 2431
1493 2191 2432 2490
1494 2204 2471 2521
1495 2212 2491 2531
1496 2232 2497 2514
1497 2243 2471 2475
1498 2263 2442 2427
1499 2259 2366 2361
1500 2263 2285 2276
1501 2231 2192 2212
1502 2228 2113 2142
1503 2243 2078 2083
1504 2242 2024 2029
1505 2230 1988 2008
1506 2204 1973 2020
1507 2193 1982 2043
1508 2172 2012 2095
1509 2174 2071 2152
1510 2173 2150 2232
1511 2201 2257 2305
1512 2196 2327 2387
1513 2186 2396 2462
1514 2178 2451 2525
1515 2190 2480 2534
1516 2218 2483 2512
1517 2230 2460 2480
1518 2257 2429 2426
1519 2250 2355 2352
1520 2260 2282 2275
1521 2220 2200 2230
1522 2217 2115 2144
1523 2229 2054 2079
1524 2229 2002 2024
1525 2228 1971 1996
1526 2201 1963 2015
1527 2179 1972 2044
1528 2165 2005 2100
1529 2169 2087 2172
1530 2160 2161 2248
1531 2187 2255 2322
1532 2190 2349 2408
1533 2203 2430 2473
1534 2202 2473 2517
1535 2192 2494 2547
1536 2210 2503 2544
1537 2218 2482 2506
1538 2244 2455 2458
1539 2244 2375 2377
1540 2256 2304 2301
1541 2239 2213 2221
1542 2246 2134 2137
1543 2244 2072 2077
1544 2243 2020 2028
1545 2242 1967 1978
1546 2225 1969 2001
1547 2224 1987 2017
1548 2195 2009 2064
1549 2199 2089 2142
1550 2184 2182 2248
1551 2192 2278 2340
1552 2182 2347 2417
1553 2190 2409 2464
1554 2209 2459 2512
1555 2212 2503 2539
1556 2242 2505 2515
1557 2245 2489 2486
1558 2273 2465 2445
1559 2270 2385 2366
1560 2270 2311 2290
1561 2257 2227 2223
1562 2258 2150 2150
1563 2248 2079 2085
1564 2242 2022 2025
1565 2246 1984 1991
1566 2224 1978 2013
1567 2216 2005 2047
1568 2199 2042 2105
1569 2186 2114 2178
1570 2189 2183 2243
1571 2202 2264 2312
1572 2196 2337 2394
1573 2205 2404 2454
1574 2219 2466 2508
1575 2227 2515 2536
1576 2255 2519 2520
1577 2259 2507 2497
1578 2292 2478 2434
1579 2285 2398 2376
1580 2273 2322 2296
1581 2266 2238 2220
1582 2268 2161 2140
1583 2257 2094 2083
1584 2248 2041 2039
1585 2254 2003 2004
1586 2238 2000 2007
1587 2234 2011 2033
1588 2207 2038 2081
1589 2208 2108 2156
1590 2214 2192 2234
1591 2230 2286 2313
1592 2230 2382 2399
1593 2248 2449 2453
1594 2255 2496 2495
1595 2252 2511 2514
1596 2281 2519 2483
1597 2286 2510 2473
1598 2306 2500 2437
1599 2302 2434 2384
1600 2306 2359 2295
1601 2299 2272 2223
1602 2290 2190 2151
1603 2286 2124 2088
1604 2277 2048 2016
1605 2276 2000 1969
1606 2263 1993 1983
1607 2254 2018 2016
1608 2226 2058 2081
1609 2234 2142 2161
1610 2236 2220 2235
1611 2260 2315 2306
1612 2257 2395 2388
1613 2265 2460 2447
1614 2269 2526 2509
1615 2268 2569 2551
1616 2297 2569 2521
1617 2302 2546 2489
1618 2326 2521 2443
1619 2330 2459 2381
1620 2333 2386 2302
1621 2329 2295 2208
1622 2335 2208 2123
1623 2325 2151 2074
1624 2321 2078 2011
1625 2325 2054 1977
1626 2307 2063 2007
1627 2300 2082 2030
1628 2286 2096 2065
1629 2282 2185 2155
1630 2277 2261 2244
1631 2288 2341 2297
1632 2300 2412 2372
1633 2304 2479 2435
1634 2307 2541 2486
1635 2314 2590 2530
1636 2337 2609 2527
1637 2345 2587 2490
1638 2369 2556 2439
1639 2375 2494 2366
1640 2382 2417 2282
1641 2382 2331 2196
1642 2377 2240 2110
1643 2375 2190 2052
1644 2368 2122 2002
1645 2375 2090 1964
1646 2353 2084 1986
1647 2352 2110 2010
1648 2336 2141 2064
1649 2338 2206 2117
1650 2338 2286 2203
1651 2350 2378 2275
1652 2341 2458 2372
1653 2334 2537 2451
1654 2341 2584 2494
1655 2335 2630 2541
1656 2360 2648 2536
1657 2377 2630 2506
1658 2404 2599 2449
1659 2411 2521 2360
1660 2403 2449 2287
1661 2387 2374 2231
1662 2387 2293 2147
1663 2383 2215 2076
1664 2375 2140 2010
1665 2374 2104 1977
1666 2351 2090 1994
1667 2345 2121 2027
1668 2331 2156 2078
1669 2334 2234 2147
1670 2329 2311 2235
1671 2337 2408 2322
1672 2351 2489 2392
1673 2350 2548 2451
1674 2350 2600 2498
1675 2347 2637 2539
1676 2368 2646 2525
1677 2374 2623 2501
1678 2398 2607 2457
1679 2398 2556 2405
1680 2389 2470 2324
1681 2387 2370 2234
1682 2369 2281 2155
1683 2363 2209 2090
1684 2349 2161 2054
1685 2349 2116 2011
1686 2332 2100 2022
1687 2331 2116 2031
1688 2311 2148 2089
1689 2306 2221 2164
1690 2293 2297 2252
1691 2305 2393 2345
1692 2292 2460 2423
1693 2279 2521 2491
1694 2285 2579 2548
1695 2293 2625 2580
1696 2308 2645 2588
1697 2308 2617 2559
1698 2319 2587 2519
1699 2330 2514 2435
1700 2332 2440 2363
1701 2310 2344 2280
1702 2306 2246 2191
1703 2299 2190 2137
1704 2274 2115 2083
1705 2282 2058 2024
1706 2263 2047 2038
1707 2257 2071 2067
1708 2225 2111 2136
1709 2206 2180 2223
1710 2203 2245 2291
1711 2199 2321 2368
1712 2191 2397 2457
1713 2193 2456 2521
1714 2196 2518 2567
1715 2197 2560 2607
1716 2218 2565 2596
1717 2214 2544 2578
1718 2238 2520 2533
1719 2242 2460 2469
1720 2245 2379 2382
1721 2227 2270 2295
1722 2213 2197 2230
1723 2211 2128 2162
1724 2198 2048 2096
1725 2201 1996 2043
1726 2186 1999 2068
1727 2175 2023 2099
1728 2145 2056 2156
1729 2141 2120 2230
1730 2136 2186 2303
1731 2150 2278 2379
1732 2156 2358 2447
1733 2157 2421 2509
1734 2162 2487 2569
1735 2159 2539 2627
1736 2177 2546 2620
1737 2186 2527 2583
1738 2212 2489 2528
1739 2215 2419 2454
1740 2215 2348 2376
1741 2197 2260 2302
1742 2186 2184 2238
1743 2192 2094 2157
1744 2188 2028 2085
1745 2189 1979 2043
1746 2165 1970 2053
1747 2165 1993 2083
1748 2140 2029 2148
1749 2127 2103 2230
1750 2127 2167 2288
1751 2140 2255 2369
1752 2140 2340 2449
1753 2131 2412 2527
1754 2146 2478 2580
1755 2139 2520 2624
1756 2157 2516 2597
1757 2168 2503 2571
1758 2196 2475 2531
1759 2189 2407 2455
1760 2193 2325 2374
1761 2184 2246 2306
1762 2172 2167 2240
1763 2175 2096 2170
1764 2157 2015 2103
1765 2169 1952 2039
1766 2143 1948 2060
1767 2143 1972 2082
1768 2125 2025 2151
1769 2131 2110 2232
1770 2117 2170 2309
1771 2109 2253 2385
1772 2126 2324 2449
1773 2133 2400 2515
1774 2138 2476 2577
1775 2146 2536 2639
1776 2166 2550 2635
1777 2177 2521 2593
1778 2208 2482 2523
1779 2206 2396 2439
1780 2202 2323 2368
1781 2192 2240 2293
1782 2181 2165 2232
1783 2182 2094 2157
1784 2178 2032 2099
1785 2183 1991 2053
1786 2164 1991 2079
1787 2156 1999 2091
1788 2133 2012 2129
1789 2121 2081 2216
1790 2116 2160 2297
1791 2113 2260 2393
1792 2118 2334 2460
1793 2119 2403 2528
1794 2143 2479 2583
1795 2146 2527 2625
1796 2166 2527 2600
1797 2172 2497 2576
1798 2203 2470 2527
1799 2215 2420 2458
1800 2216 2342 2375
1801 2195 2259 2313
1802 2189 2184 2243
1803 2190 2104 2162
1804 2182 2045 2108
1805 2193 2000 2057
1806 2180 1985 2060
1807 2161 1996 2082
1808 2137 2024 2141
1809 2125 2097 2225
1810 2127 2185 2317
1811 2131 2287 2405
1812 2143 2378 2482
1813 2138 2425 2532
1814 2148 2470 2577
1815 2144 2518 2619
1816 2178 2538 2605
1817 2190 2546 2595
1818 2219 2520 2549
1819 2218 2455 2485
1820 2211 2373 2410
1821 2195 2274 2329
1822 2187 2201 2258
1823 2198 2124 2181
1824 2190 2068 2121
1825 2189 2010 2073
1826 2158 1996 2091
1827 2151 2008 2108
1828 2127 2041 2174
1829 2117 2120 2251
1830 2125 2194 2323
1831 2128 2276 2395
1832 2139 2344 2448
1833 2142 2415 2519
1834 2162 2492 2583
1835 2158 2547 2632
1836 2181 2556 2626
1837 2182 2540 2597
1838 2203 2501 2542
1839 2212 2436 2475
1840 2211 2367 2405
1841 2206 2275 2321
1842 2192 2192 2247
1843 2196 2118 2176
1844 2178 2060 2128
1845 2182 2005 2074
1846 2165 1997 2094
1847 2174 2034 2108
1848 2151 2070 2169
1849 2126 2126 2251
1850 2117 2166 2310
1851 2127 2255 2379
1852 2135 2339 2453
1853 2144 2423 2530
1854 2165 2490 2571
1855 2182 2535 2605
1856 2198 2553 2600
1857 2185 2549 2610
1858 2210 2511 2548
1859 2233 2429 2450
1860 2218 2368 2393
1861 2203 2277 2321
1862 2175 2200 2270
1863 2190 2138 2198
1864 2186 2069 2136
1865 2179 2011 2081
1866 2163 2001 2094
1867 2153 2009 2112
1868 2122 2025 2159
1869 2106 2088 2231
1870 2117 2168 2306
1871 2125 2265 2388
1872 2133 2347 2460
1873 2136 2418 2525
1874 2154 2477 2565
1875 2151 2532 2627
1876 2167 2547 2630
1877 2169 2532 2605
1878 2201 2501 2550
1879 2205 2438 2476
1880 2210 2369 2407
1881 2196 2275 2328
1882 2171 2198 2267
1883 2179 2120 2193
1884 2167 2055 2130
1885 2179 2004 2075
1886 2156 1981 2079
1887 2143 1988 2100
1888 2122 2028 2156
1889 2114 2096 2236
1890 2124 2162 2291
1891 2144 2259 2366
1892 2142 2341 2450
1893 2146 2428 2533
1894 2153 2489 2579
1895 2144 2529 2632
1896 2166 2548 2620
1897 2171 2526 2603
1898 2190 2508 2565
1899 2202 2442 2491
1900 2193 2358 2410
1901 2190 2281 2337
1902 2182 2204 2266
1903 2189 2133 2189
1904 2169 2060 2142
1905 2169 1995 2075
1906 2160 1981 2074
1907 2160 1992 2090
1908 2132 2035 2155
1909 2126 2101 2231
1910 2121 2158 2287
1911 2123 2247 2374
1912 2131 2323 2444
1913 2132 2399 2515
1914 2155 2468 2560
1915 2165 2529 2625
1916 2180 2558 2623
1917 2187 2541 2603
1918 2210 2499 2540
1919 2217 2433 2463
1920 2207 2367 2409
1921 2206 2274 2319
1922 2193 2194 2253
1923 2200 2121 2174
1924 2182 2056 2127
1925 2187 2001 2070
1926 2177 1993 2077
1927 2166 2009 2096
1928 2120 2030 2162
1929 2108 2102 2251
1930 2121 2175 2311
1931 2121 2263 2393
1932 2131 2327 2446
1933 2138 2404 2511
1934 2153 2465 2557
1935 2146 2512 2612
1936 2172 2534 2616
1937 2168 2534 2612
1938 2183 2495 2560
1939 2194 2434 2482
1940 2196 2369 2421
1941 2191 2268 2330
1942 2175 2189 2263
1943 2178 2118 2193
1944 2175 2048 2127
1945 2183 1985 2058
1946 2177 1983 2056
1947 2176 1991 2069
1948 2147 2022 2126
1949 2123 2091 2221
1950 2113 2164 2303
1951 2117 2263 2396
1952 2124 2330 2459
1953 2126 2393 2517
1954 2144 2446 2549
1955 2145 2503 2607
1956 2164 2535 2615
1957 2168 2524 2608
1958 2194 2496 2554
1959 2202 2439 2488
1960 2188 2378 2437
1961 2187 2286 2347
1962 2170 2204 2277
1963 2177 2113 2183
1964 2163 2034 2127
1965 2167 2004 2088
1966 2149 1980 2088
1967 2147 1977 2087
1968 2127 2006 2138
1969 2108 2075 2221
1970 2109 2153 2296
1971 2122 2250 2382
1972 2139 2329 2444
1973 2129 2405 2528
1974 2139 2472 2579
1975 2136 2513 2623
1976 2159 2538 2624
1977 2178 2534 2606
1978 2193 2508 2565
1979 2202 2438 2482
1980 2188 2372 2430
1981 2192 2284 2341
1982 2181 2203 2265
1983 2185 2128 2192
1984 2177 2059 2131
1985 2183 2006 2077
1986 2157 1981 2080
1987 2155 2005 2102
1988 2129 2025 2150
1989 2112 2080 2224
1990 2113 2150 2290
1991 2115 2260 2391
1992 2129 2329 2455
1993 2127 2405 2527
1994 2149 2484 2592
1995 2143 2534 2640
1996 2157 2551 2641
1997 2157 2538 2622
1998 2191 2512 2567
1999 2197 2450 2498
2000 2191 2375 2429
2001 2190 2268 2331
2002 2168 2191 2268
2003 2167 2118 2200
2004 2150 2066 2161
2005 2179 2026 2102
2006 2159 1995 2091
2007 2148 2011 2113
2008 2125 2031 2160
2009 2107 2075 2227
2010 2116 2160 2296
2011 2116 2258 2389
2012 2135 2337 2453
2013 2125 2408 2534
2014 2143 2486 2591
2015 2135 2533 2645
2016 2156 2546 2639
2017 2162 2537 2617
2018 2183 2522 2590
2019 2193 2478 2526
2020 2188 2398 2459
2021 2201 2311 2362
2022 2183 2231 2296
2023 2185 2154 2221
2024 2167 2074 2158
2025 2173 2017 2094
2026 2165 2007 2097
2027 2154 2032 2134
2028 2122 2042 2172
2029 2104 2101 2246
2030 2116 2170 2311
2031 2117 2257 2388
2032 2127 2330 2453
2033 2126 2416 2539
2034 2127 2477 2595
2035 2127 2532 2651
2036 2153 2564 2660
2037 2173 2572 2643
2038 2195 2547 2591
2039 2204 2476 2519
2040 2216 2409 2441
2041 2224 2318 2347
2042 2195 2256 2313
2043 2179 2175 2249
2044 2153 2089 2184
2045 2167 2032 2119
2046 2153 2010 2107
2047 2143 2015 2124
2048 2129 2043 2173
2049 2100 2104 2254
2050 2104 2176 2326
2051 2102 2270 2415
2052 2122 2342 2466
2053 2123 2423 2548
2054 2129 2488 2611
2055 2133 2558 2665
2056 2160 2583 2664
2057 2170 2575 2656
2058 2186 2534 2598
2059 2207 2479 2519
2060 2188 2410 2465
2061 2178 2309 2379
2062 2178 2227 2296
2063 2185 2146 2221
2064 2166 2095 2178
2065 2187 2040 2105
2066 2175 2026 2107
2067 2149 2056 2162
2068 2121 2081 2219
2069 2112 2116 2262
2070 2127 2166 2304
2071 2123 2278 2406
2072 2126 2364 2486
2073 2132 2443 2562
2074 2150 2511 2614
2075 2140 2559 2664
2076 2154 2574 2667
2077 2158 2570 2665
2078 2191 2551 2611
2079 2208 2508 2542
2080 2205 2432 2476
2081 2208 2347 2386
2082 2182 2257 2321
2083 2175 2169 2252
2084 2158 2113 2201
2085 2171 2066 2146
2086 2155 2058 2154
2087 2148 2066 2171
2088 2129 2092 2218
2089 2109 2148 2290
2090 2116 2216 2350
2091 2118 2309 2437
2092 2138 2385 2509
2093 2131 2454 2577
2094 2150 2528 2630
2095 2155 2576 2672
2096 2177 2602 2675
2097 2188 2591 2652
2098 2205 2566 2611
2099 2212 2508 2542
2100 2204 2445 2490
2101 2213 2372 2411
2102 2194 2289 2343
2103 2196 2216 2264
2104 2179 2134 2201
2105 2181 2081 2149
2106 2173 2066 2152
2107 2158 2071 2167
2108 2142 2095 2206
2109 2142 2142 2252
2110 2158 2215 2315
2111 2162 2313 2409
2112 2174 2398 2470
2113 2182 2483 2553
2114 2202 2549 2599
2115 2190 2599 2665
2116 2182 2621 2690
2117 2178 2608 2683
2118 2217 2589 2624
2119 2234 2549 2554
2120 2243 2467 2479
2121 2243 2373 2376
2122 2224 2287 2307
2123 2229 2205 2231
2124 2212 2155 2195
2125 2209 2096 2129
2126 2193 2053 2114
2127 2186 2047 2120
2128 2163 2076 2165
2129 2146 2127 2242
2130 2155 2183 2292
2131 2145 2276 2381
2132 2155 2355 2446
2133 2151 2446 2548
2134 2171 2510 2592
2135 2173 2563 2637
2136 2195 2569 2624
2137 2203 2558 2603
2138 2222 2538 2563
2139 2237 2493 2501
2140 2227 2429 2448
2141 2231 2322 2339
2142 2222 2243 2277
2143 2216 2174 2212
2144 2201 2116 2171
2145 2211 2039 2080
2146 2204 2006 2050
2147 2183 2014 2085
2148 2161 2027 2125
2149 2135 2085 2197
2150 2138 2164 2280
2151 2138 2257 2373
2152 2151 2329 2429
2153 2148 2396 2498
2154 2147 2456 2558
2155 2142 2517 2616
2156 2160 2532 2616
2157 2183 2538 2603
2158 2207 2510 2554
2159 2225 2460 2484
2160 2218 2382 2415
2161 2220 2291 2323
2162 2194 2207 2262
2163 2190 2120 2179
2164 2176 2061 2141
2165 2177 2008 2093
2166 2169 1992 2077
2167 2165 1984 2073
2168 2156 2010 2115
2169 2144 2071 2183
2170 2152 2156 2259
2171 2141 2241 2350
2172 2154 2308 2405
2173 2147 2384 2486
2174 2163 2459 2551
2175 2166 2533 2619
2176 2180 2562 2627
2177 2197 2531 2582
2178 2210 2515 2548
2179 2229 2477 2495
2180 2218 2389 2423
2181 2209 2275 2317
2182 2194 2203 2266
2183 2192 2129 2194
2184 2179 2054 2125
2185 2182 1996 2066
2186 2173 1965 2052
2187 2156 1979 2079
2188 2131 2010 2140
2189 2099 2043 2203
2190 2115 2117 2259
2191 2114 2222 2360
2192 2126 2306 2429
2193 2118 2403 2531
2194 2135 2480 2588
2195 2139 2524 2628
2196 2149 2538 2631
2197 2172 2536 2613
2198 2211 2526 2566
2199 2235 2497 2503
2200 2251 2438 2441
2201 2276 2358 2332
2202 2280 2280 2250
2203 2299 2211 2160
2204 2308 2168 2105
2205 2342 2139 2048
2206 2364 2154 2043
2207 2394 2218 2073
2208 2393 2298 2156
2209 2394 2381 2247
2210 2439 2507 2325
2211 2475 2657 2444
2212 2522 2777 2511
2213 2575 2886 2564
2214 2630 3010 2638
2215 2653 3125 2724
2216 2687 3220 2782
2217 2741 3236 2740
2218 2803 3218 2652
2219 2841 3176 2581
2220 2849 3100 2502
2221 2838 2992 2404
2222 2818 2886 2322
2223 2816 2785 2223
2224 2778 2662 2135
2225 2755 2584 2075
2226 2729 2548 2069
2227 2677 2521 2092
2228 2598 2524 2180
2229 2529 2528 2261
2230 2483 2553 2326
2231 2438 2583 2398
2232 2417 2607 2454
2233 2383 2637 2512
2234 2363 2650 2544
2235 2326 2671 2602
2236 2307 2669 2617
2237 2278 2628 2600
2238 2266 2581 2567
2239 2264 2525 2511
2240 2252 2463 2464
2241 2253 2379 2371
2242 2240 2295 2302
2243 2244 2209 2213
2244 2245 2128 2136
2245 2258 2085 2075
2246 2240 2054 2068
2247 2230 2076 2100
2248 2205 2097 2141
2249 2191 2122 2192
2250 2193 2178 2242
2251 2182 2249 2319
2252 2203 2335 2385
2253 2188 2416 2482
2254 2189 2466 2534
2255 2181 2508 2580
2256 2196 2532 2578
2257 2222 2534 2564
2258 2248 2512 2520
2259 2265 2469 2454
2260 2255 2398 2399
2261 2244 2302 2314
2262 2217 2225 2249
2263 2218 2137 2170
2264 2208 2072 2116
2265 2218 2007 2042
2266 2200 1982 2035
2267 2191 1998 2060
2268 2171 2013 2099
2269 2151 2061 2163
2270 2164 2143 2233
2271 2154 2216 2313
2272 2173 2279 2362
2273 2173 2357 2436
2274 2190 2446 2501
2275 2189 2507 2570
2276 2195 2531 2587
2277 2201 2523 2576
2278 2211 2491 2526
2279 2220 2438 2458
2280 2220 2371 2393
2281 2227 2295 2321
2282 2197 2215 2266
2283 2192 2119 2172
2284 2185 2041 2102
2285 2194 1994 2050
2286 2189 1971 2022
2287 2178 1974 2047
2288 2157 2003 2103
2289 2140 2038 2154
2290 2150 2104 2214
2291 2138 2196 2307
2292 2161 2279 2370
2293 2166 2368 2449
2294 2180 2446 2516
2295 2172 2497 2568
2296 2185 2521 2581
2297 2193 2512 2569
2298 2208 2486 2527
2299 2233 2457 2471
2300 2226 2393 2413
2301 2236 2298 2310
2302 2215 2207 2245
2303 2214 2124 2154
2304 2202 2036 2086
2305 2193 1990 2045
2306 2184 1973 2035
2307 2173 1972 2055
2308 2156 1998 2090
2309 2151 2048 2152
2310 2172 2129 2213
2311 2168 2218 2308
2312 2182 2308 2386
2313 2186 2405 2465
2314 2200 2461 2516
2315 2188 2515 2575
2316 2190 2536 2598
2317 2211 2530 2582
2318 2221 2503 2536
2319 2231 2462 2480
2320 2236 2386 2404
2321 2245 2301 2313
2322 2224 2233 2256
2323 2234 2151 2176
2324 2214 2076 2110
2325 2208 2007 2047
2326 2201 1977 2030
2327 2199 1977 2031
2328 2182 2011 2089
2329 2163 2059 2149
2330 2180 2137 2213
2331 2173 2230 2308
2332 2182 2295 2361
2333 2176 2379 2458
2334 2190 2455 2512
2335 2203 2512 2564
2336 2209 2544 2587
2337 2219 2532 2569
2338 2236 2513 2531
2339 2251 2472 2468
2340 2249 2404 2406
2341 2262 2329 2315
2342 2245 2252 2256
2343 2246 2165 2172
2344 2243 2093 2100
2345 2242 2025 2034
2346 2221 1985 2015
2347 2204 1989 2040
2348 2184 2026 2089
2349 2177 2070 2148
2350 2199 2152 2202
2351 2197 2248 2306
2352 2209 2324 2373
2353 2193 2400 2463
2354 2193 2477 2534
2355 2192 2527 2581
2356 2202 2543 2579
2357 2233 2548 2574
2358 2259 2534 2526
2359 2281 2507 2479
2360 2274 2429 2408
2361 2273 2337 2315
2362 2261 2269 2257
2363 2264 2180 2169
2364 2258 2091 2092
2365 2256 2029 2030
2366 2243 2005 2018
2367 2228 2017 2039
2368 2213 2044 2083
2369 2202 2082 2140
2370 2209 2159 2199
2371 2197 2236 2293
2372 2213 2328 2365
2373 2211 2426 2466
2374 2225 2496 2518
2375 2221 2533 2565
2376 2232 2567 2579
2377 2260 2576 2569
2378 2276 2570 2546
2379 2292 2544 2501
2380 2300 2467 2418
2381 2304 2378 2317
2382 2299 2289 2240
2383 2307 2213 2153
2384 2300 2145 2093
2385 2290 2089 2058
2386 2272 2064 2042
2387 2257 2049 2044
2388 2251 2074 2079
2389 2237 2120 2133
2390 2248 2190 2197
2391 2248 2266 2281
2392 2267 2356 2343
2393 2264 2435 2429
2394 2264 2507 2492
2395 2266 2570 2558
2396 2280 2611 2586
2397 2302 2622 2568
2398 2322 2593 2521
2399 2328 2555 2469
2400 2327 2479 2404
2401 2342 2394 2307
2402 2334 2311 2230
2403 2344 2235 2136
2404 2335 2179 2092
2405 2331 2127 2042
2406 2325 2076 2012
2407 2305 2078 2022
2408 2295 2103 2064
2409 2278 2134 2121
2410 2289 2205 2169
2411 2288 2302 2268
2412 2312 2410 2349
2413 2308 2510 2457
2414 2314 2566 2511
2415 2315 2613 2549
2416 2336 2645 2564
2417 2343 2647 2561
2418 2355 2642 2540
2419 2378 2612 2485
2420 2377 2533 2407
2421 2394 2441 2298
2422 2375 2355 2238
2423 2367 2281 2154
2424 2361 2195 2083
2425 2348 2146 2042
2426 2349 2105 2009
2427 2336 2102 2012
2428 2329 2126 2048
2429 2323 2167 2098
2430 2329 2244 2164
2431 2318 2315 2254
2432 2326 2418 2349
2433 2324 2512 2442
2434 2340 2589 2500
2435 2350 2651 2552
2436 2373 2675 2562
2437 2374 2666 2542
2438 2391 2638 2497
2439 2410 2609 2455
2440 2400 2547 2399
2441 2407 2470 2307
2442 2387 2372 2237
2443 2379 2302 2169
2444 2373 2232 2103
2445 2382 2167 2032
2446 2368 2134 2012
2447 2341 2124 2037
2448 2346 2149 2056
2449 2315 2169 2110
2450 2315 2261 2197
2451 2305 2361 2303
2452 2326 2428 2357
2453 2316 2512 2443
2454 2320 2603 2527
2455 2325 2659 2580
2456 2334 2677 2590
2457 2354 2671 2577
2458 2354 2642 2536
2459 2374 2590 2467
2460 2373 2524 2397
2461 2373 2444 2319
2462 2358 2360 2253
2463 2359 2291 2178
2464 2348 2228 2121
2465 2348 2172 2070
2466 2325 2135 2060
2467 2291 2136 2092
2468 2272 2140 2122
2469 2253 2169 2166
2470 2256 2243 2230
2471 2246 2320 2327
2472 2252 2401 2392
2473 2257 2481 2475
2474 2266 2551 2538
2475 2260 2609 2602
2476 2258 2635 2622
2477 2265 2634 2618
2478 2267 2614 2588
2479 2295 2584 2536
2480 2287 2514 2473
2481 2298 2436 2378
2482 2293 2351 2304
2483 2290 2261 2221
2484 2275 2185 2158
2485 2268 2111 2095
2486 2265 2078 2070
2487 2242 2079 2089
2488 2227 2091 2117
2489 2208 2117 2164
2490 2200 2186 2236
2491 2193 2268 2336
2492 2182 2348 2418
2493 2183 2431 2502
2494 2198 2498 2552
2495 2201 2551 2600
2496 2205 2590 2624
2497 2230 2589 2608
2498 2226 2570 2589
2499 2249 2537 2542
2500 2246 2460 2463
2501 2249 2382 2380
2502 2234 2299 2313
2503 2225 2203 2231
2504 2208 2127 2172
2505 2203 2063 2115
2506 2200 2032 2082
2507 2179 2027 2093
2508 2158 2043 2137
2509 2134 2087 2200
2510 2135 2156 2279
2511 2135 2242 2357
2512 2152 2331 2426
2513 2152 2416 2506
2514 2159 2478 2570
2515 2170 2538 2620
2516 2178 2574 2638
2517 2191 2574 2620
2518 2194 2547 2601
2519 2217 2525 2552
2520 2211 2450 2487
2521 2215 2364 2389
2522 2200 2275 2323
2523 2200 2198 2246
2524 2195 2145 2203
2525 2191 2074 2133
2526 2191 2010 2074
2527 2166 2003 2087
2528 2145 2029 2136
2529 2123 2062 2198
2530 2131 2147 2265
2531 2138 2229 2338
2532 2158 2314 2404
2533 2159 2405 2497
2534 2169 2475 2555
2535 2160 2537 2623
2536 2180 2561 2624
2537 2199 2554 2610
2538 2172 2537 2611
2539 2187 2515 2576
2540 2187 2439 2499
2541 2198 2352 2394
2542 2188 2270 2334
2543 2184 2183 2249
2544 2167 2112 2194
2545 2170 2040 2121
2546 2178 2004 2080
2547 2150 1998 2093
2548 2135 2017 2129
2549 2112 2054 2188
2550 2124 2144 2272
2551 2114 2225 2354
2552 2130 2315 2432
2553 2138 2407 2519
2554 2143 2473 2572
2555 2146 2523 2616
2556 2154 2551 2637
2557 2188 2558 2621
2558 2206 2553 2593
2559 2231 2531 2551
2560 2216 2454 2494
2561 2207 2360 2399
2562 2194 2265 2318
2563 2194 2177 2238
2564 2178 2114 2178
2565 2176 2069 2144
2566 2168 2037 2120
2567 2148 2025 2126
2568 2143 2033 2140
2569 2114 2047 2188
2570 2117 2121 2257
2571 2127 2218 2346
2572 2145 2315 2420
2573 2140 2393 2505
2574 2151 2463 2561
2575 2155 2529 2618
2576 2165 2562 2642
2577 2197 2566 2619
2578 2212 2560 2594
2579 2229 2518 2538
2580 2228 2442 2467
2581 2237 2370 2388
2582 2217 2279 2310
2583 2210 2195 2233
2584 2192 2119 2179
2585 2195 2071 2127
2586 2191 2033 2103
2587 2168 2027 2109
2588 2161 2037 2130
2589 2143 2060 2174
2590 2135 2139 2250
2591 2124 2219 2346
2592 2142 2299 2414
2593 2141 2379 2484
2594 2154 2451 2547
2595 2150 2511 2600
2596 2164 2555 2639
2597 2188 2556 2623
2598 2186 2538 2586
2599 2218 2494 2523
2600 2217 2423 2455
2601 2222 2351 2374
2602 2205 2265 2304
2603 2206 2188 2232
2604 2191 2126 2178
2605 2190 2073 2132
2606 2190 2026 2093
2607 2160 2008 2099
2608 2160 2018 2114
2609 2132 2048 2169
2610 2144 2126 2233
2611 2139 2207 2317
2612 2152 2296 2387
2613 2151 2392 2489
2614 2157 2468 2555
2615 2171 2531 2605
2616 2180 2559 2622
2617 2196 2557 2607
2618 2195 2534 2589
2619 2220 2511 2536
2620 2222 2430 2459
2621 2229 2355 2375
2622 2206 2262 2303
2623 2203 2179 2226
2624 2197 2106 2157
2625 2196 2045 2095
2626 2199 2001 2062
2627 2165 1987 2068
2628 2166 1995 2082
2629 2143 2023 2130
2630 2147 2102 2208
2631 2138 2189 2302
2632 2150 2301 2400
2633 2152 2395 2501
2634 2165 2459 2542
2635 2178 2505 2580
2636 2180 2545 2611
2637 2200 2554 2604
2638 2207 2532 2568
2639 2233 2503 2520
2640 2235 2425 2440
2641 2232 2343 2356
2642 2210 2257 2291
2643 2202 2173 2215
2644 2196 2088 2140
2645 2181 2021 2086
2646 2183 1976 2049
2647 2158 1974 2059
2648 2176 1987 2071
2649 2137 2034 2150
2650 2125 2117 2244
2651 2124 2186 2315
2652 2135 2282 2389
2653 2151 2366 2468
2654 2161 2442 2532
2655 2162 2490 2573
2656 2168 2524 2604
2657 2194 2539 2593
2658 2209 2536 2577
2659 2238 2518 2529
2660 2237 2426 2445
2661 2223 2343 2365
2662 2209 2242 2270
2663 2201 2143 2190
2664 2196 2076 2133
2665 2194 2021 2074
2666 2206 1989 2036
2667 2178 1987 2055
2668 2170 2008 2093
2669 2150 2036 2145
2670 2142 2111 2225
2671 2138 2186 2301
2672 2154 2288 2380
2673 2153 2360 2454
2674 2157 2417 2508
2675 2172 2473 2551
2676 2180 2525 2591
2677 2203 2523 2570
2678 2207 2498 2538
2679 2222 2471 2497
2680 2226 2412 2437
2681 2223 2338 2357
2682 2219 2246 2278
2683 2212 2156 2189
2684 2212 2087 2131
2685 2199 2017 2067
2686 2188 1971 2036
2687 2165 1962 2052
2688 2161 1979 2075
2689 2138 2019 2137
2690 2134 2095 2211
2691 2142 2179 2286
2692 2159 2264 2350
2693 2156 2330 2422
2694 2160 2404 2494
2695 2179 2481 2555
2696 2171 2525 2599
2697 2199 2526 2584
2698 2200 2508 2553
2699 2223 2474 2501
2700 2229 2399 2423
2701 2231 2308 2322
2702 2215 2228 2267
2703 2194 2142 2201
2704 2186 2063 2128
2705 2180 1990 2053
2706 2184 1961 2029
2707 2164 1958 2047
2708 2160 1971 2068
2709 2136 2012 2124
2710 2140 2108 2213
2711 2138 2174 2283
2712 2165 2254 2343
2713 2165 2331 2420
2714 2171 2396 2484
2715 2173 2463 2544
2716 2174 2507 2584
2717 2190 2514 2576
2718 2203 2492 2537
2719 2225 2455 2482
2720 2215 2386 2415
2721 2224 2310 2329
2722 2210 2220 2256
2723 2203 2137 2187
2724 2198 2066 2118
2725 2191 1994 2054
2726 2196 1948 2004
2727 2178 1942 2017
2728 2177 1965 2050
2729 2148 1997 2108
2730 2144 2073 2186
2731 2143 2156 2264
2732 2150 2241 2338
2733 2155 2319 2414
2734 2153 2388 2489
2735 2160 2459 2548
2736 2173 2506 2584
2737 2196 2506 2564
2738 2198 2489 2532
2739 2222 2463 2484
2740 2232 2400 2413
2741 2230 2315 2329
2742 2216 2223 2255
2743 2205 2140 2189
2744 2187 2065 2130
2745 2182 1999 2063
2746 2179 1950 2019
2747 2161 1940 2030
2748 2153 1947 2039
2749 2144 1981 2093
2750 2162 2076 2163
2751 2165 2150 2241
2752 2166 2247 2328
2753 2168 2326 2407
2754 2165 2385 2465
2755 2172 2444 2520
2756 2174 2498 2572
2757 2189 2511 2577
2758 2189 2493 2558
2759 2215 2476 2521
2760 2217 2405 2439
2761 2220 2327 2354
2762 2207 2223 2264
2763 2198 2134 2181
2764 2201 2052 2102
2765 2200 1998 2049
2766 2197 1955 2006
2767 2178 1940 2013
2768 2160 1949 2037
2769 2139 1977 2091
2770 2142 2053 2162
2771 2134 2132 2251
2772 2141 2232 2340
2773 2150 2311 2420
2774 2152 2380 2473
2775 2160 2438 2526
2776 2161 2486 2572
2777 2188 2507 2570
2778 2195 2523 2569
2779 2215 2473 2502
2780 2224 2376 2408
2781 2226 2305 2320
2782 2218 2210 2250
2783 2216 2137 2170
2784 2219 2064 2099
2785 2199 2004 2064
2786 2194 1956 2017
2787 2177 1941 2017
2788 2169 1952 2037
2789 2141 1981 2096
2790 2136 2060 2173
2791 2140 2132 2247
2792 2140 2228 2337
2793 2148 2305 2408
2794 2150 2382 2475
2795 2172 2452 2532
2796 2174 2490 2562
2797 2193 2495 2559
2798 2201 2490 2547
2799 2216 2458 2490
2800 2229 2388 2412
2801 2230 2329 2341
2802 2217 2233 2269
2803 2197 2131 2180
2804 2195 2051 2105
2805 2191 2001 2067
2806 2199 1953 2011
2807 2175 1940 2021
2808 2163 1957 2050
2809 2143 2001 2115
2810 2139 2066 2175
2811 2156 2136 2239
2812 2156 2224 2319
2813 2156 2290 2382
2814 2154 2373 2468
2815 2159 2449 2540
2816 2163 2498 2580
2817 2190 2489 2546
2818 2206 2483 2520
2819 2243 2471 2470
2820 2251 2399 2398
2821 2227 2338 2364
2822 2217 2256 2294
2823 2213 2162 2195
2824 2212 2075 2120
2825 2197 2007 2056
2826 2202 1949 1999
2827 2176 1925 2004
2828 2164 1936 2031
2829 2143 1991 2101
2830 2134 2064 2181
2831 2137 2127 2244
2832 2156 2226 2326
2833 2162 2314 2405
2834 2162 2387 2470
2835 2180 2452 2526
2836 2178 2501 2572
2837 2198 2513 2561
2838 2202 2502 2548
2839 2221 2473 2500
2840 2232 2408 2426
2841 2229 2328 2346
2842 2208 2227 2270
2843 2206 2149 2194
2844 2206 2075 2126
2845 2197 2021 2077
2846 2201 1980 2033
2847 2190 1963 2028
2848 2180 1978 2048
2849 2152 2011 2115
2850 2141 2084 2196
2851 2148 2154 2260
2852 2161 2255 2341
2853 2168 2344 2425
2854 2167 2418 2497
2855 2180 2481 2552
2856 2178 2530 2597
2857 2214 2553 2594
2858 2229 2551 2577
2859 2246 2517 2523
2860 2240 2440 2451
2861 2237 2364 2372
2862 2230 2261 2280
2863 2235 2179 2196
2864 2234 2114 2136
2865 2217 2058 2088
2866 2223 2013 2048
2867 2207 2007 2054
2868 2206 2013 2063
2869 2173 2030 2112
2870 2152 2097 2196
2871 2161 2176 2267
2872 2163 2269 2358
2873 2175 2354 2441
2874 2173 2422 2499
2875 2194 2491 2544
2876 2199 2535 2587
2877 2223 2556 2583
2878 2221 2540 2572
2879 2247 2514 2524
2880 2261 2464 2452
2881 2265 2403 2385
2882 2260 2308 2298
2883 2244 2216 2229
2884 2239 2148 2156
2885 2233 2069 2090
2886 2224 2019 2048
2887 2204 2009 2063
2888 2205 2028 2080
2889 2180 2062 2138
2890 2170 2127 2214
2891 2178 2192 2274
2892 2189 2290 2351
2893 2211 2371 2415
2894 2223 2441 2468
2895 2229 2489 2513
2896 2218 2538 2580
2897 2235 2560 2570
2898 2254 2546 2544
2899 2265 2517 2504
2900 2268 2420 2399
2901 2246 2340 2336
2902 2233 2253 2274
2903 2228 2188 2211
2904 2222 2112 2142
2905 2212 2045 2085
2906 2226 1985 2014
2907 2199 1947 2001
2908 2192 1959 2019
2909 2168 1993 2080
2910 2151 2072 2171
2911 2159 2144 2239
2912 2165 2233 2321
2913 2180 2313 2391
2914 2180 2394 2466
2915 2200 2462 2520
2916 2191 2511 2571
2917 2215 2519 2554
2918 2212 2505 2544
2919 2225 2461 2489
2920 2228 2386 2415
2921 2215 2326 2365
2922 2213 2238 2283
2923 2206 2150 2198
2924 2203 2075 2131
2925 2191 2020 2080
2926 2196 1975 2028
2927 2174 1956 2031
2928 2169 1959 2048
2929 2147 2000 2101
2930 2142 2064 2178
2931 2151 2125 2227
2932 2163 2215 2312
2933 2172 2310 2393
2934 2180 2376 2451
2935 2194 2451 2506
2936 2190 2495 2555
2937 2212 2503 2537
2938 2208 2488 2523
2939 2221 2460 2487
2940 2232 2398 2416
2941 2235 2354 2362
2942 2229 2249 2274
2943 2208 2159 2201
2944 2203 2077 2125
2945 2190 2004 2066
2946 2199 1949 2009
2947 2177 1935 2009
2948 2181 1955 2032
2949 2148 1982 2082
2950 2133 2048 2166
2951 2150 2114 2224
2952 2153 2219 2323
2953 2158 2295 2391
2954 2153 2362 2461
2955 2167 2427 2512
2956 2170 2488 2567
2957 2190 2524 2581
2958 2190 2500 2566
2959 2192 2470 2529
2960 2199 2424 2469
2961 2195 2360 2415
2962 2186 2277 2336
2963 2173 2198 2271
2964 2184 2120 2189
2965 2170 2046 2122
2966 2180 1995 2065
2967 2179 1988 2065
2968 2198 2020 2075
2969 2200 2062 2117
2970 2209 2130 2175
2971 2232 2213 2237
2972 2260 2321 2313
2973 2309 2423 2366
2974 2337 2529 2449
2975 2382 2641 2521
2976 2417 2750 2586
2977 2452 2802 2604
2978 2494 2831 2592
2979 2558 2852 2548
2980 2595 2831 2488
2981 2624 2796 2420
2982 2650 2759 2363
2983 2664 2747 2330
2984 2702 2734 2280
2985 2725 2727 2251
2986 2783 2676 2142
2987 2800 2672 2122
2988 2808 2683 2119
2989 2789 2706 2177
2990 2773 2749 2231
2991 2767 2788 2278
2992 2756 2841 2345
2993 2746 2904 2408
2994 2723 2957 2492
2995 2703 3001 2556
2996 2649 3022 2626
2997 2611 3020 2662
2998 2559 2944 2642
2999 2526 2849 2574
3000 2493 2732 2489
